Time [sec],Flux [g/(m2h)],Mark,AmbT [C],AmbRH [%],ProbeT [C],ProbeRH [%],CondenserT [C],HeatsinkT [C],Ice [mg],Qty [g/m2]
0,0.97,0,26.5,47.6,23.65,13.56,-7.57,30.4,1.719,4.75E-06
1,0.97,0,26.5,47.6,23.65,13.56,-7.57,30.4,1.719,9.54E-06
2,1.03,0,26.5,47.6,23.65,13.57,-7.57,30.4,1.719,1.46E-05
3.1,1.64,0,26.5,47.6,23.65,13.64,-7.57,30.4,1.719,2.27E-05
4.1,2.5,0,26.5,47.6,23.65,13.78,-7.57,30.4,1.719,3.50E-05
5.1,4.01,0,26.5,47.5,23.65,14.02,-7.57,30.5,1.719,5.48E-05
6.1,5.9,0,26.5,47.5,23.66,14.37,-7.57,30.5,1.719,8.36E-05
7.2,8.37,0,26.5,47.5,23.66,14.83,-7.57,30.5,1.719,1.25E-04
8.2,11.21,0,26.5,47.5,23.66,15.4,-7.57,30.5,1.719,1.79E-04
9.2,14.08,0,26.5,47.5,23.67,16.02,-7.57,30.5,1.72,2.49E-04
10.2,17.11,0,26.5,47.5,23.67,16.68,-7.57,30.5,1.72,3.34E-04
11.3,19.78,0,26.5,47.5,23.67,17.34,-7.57,30.5,1.72,4.31E-04
12.3,22.39,0,26.5,47.5,23.67,17.97,-7.57,30.5,1.72,5.42E-04
13.3,24.69,0,26.5,47.5,23.68,18.55,-7.57,30.5,1.721,6.62E-04
14.3,26.7,0,26.6,47.5,23.68,19.08,-7.57,30.5,1.721,7.93E-04
15.3,28.6,0,26.6,47.5,23.68,19.57,-7.57,30.5,1.721,9.33E-04
16.4,30.16,0,26.6,47.5,23.68,20,-7.57,30.5,1.721,1.08E-03
17.4,31.58,0,26.6,47.5,23.69,20.37,-7.57,30.5,1.722,1.24E-03
18.4,32.75,0,26.6,47.5,23.69,20.7,-7.57,30.5,1.722,1.40E-03
19.4,33.79,0,26.6,47.5,23.69,20.98,-7.57,30.5,1.723,1.56E-03
20.4,34.75,0,26.6,47.5,23.7,21.24,-7.57,30.5,1.723,1.73E-03
21.5,35.45,0,26.6,47.5,23.7,21.45,-7.57,30.5,1.723,1.91E-03
22.5,36.06,0,26.6,47.5,23.7,21.62,-7.57,30.5,1.724,2.09E-03
23.5,36.62,0,26.6,47.6,23.7,21.77,-7.57,30.5,1.724,2.27E-03
24.5,37.06,0,26.6,47.6,23.71,21.9,-7.57,30.5,1.724,2.45E-03
25.5,37.46,0,26.6,47.6,23.71,22.01,-7.57,30.5,1.725,2.63E-03
26.5,37.82,0,26.6,47.6,23.71,22.11,-7.57,30.5,1.725,2.81E-03
27.6,38.15,0,26.6,47.6,23.71,22.19,-7.57,30.5,1.726,3.00E-03
28.6,38.47,0,26.6,47.6,23.71,22.27,-7.57,30.5,1.726,3.19E-03
29.6,38.68,0,26.6,47.6,23.71,22.34,-7.57,30.5,1.727,3.38E-03
30.6,38.92,0,26.6,47.6,23.71,22.4,-7.57,30.5,1.727,3.57E-03
31.6,39.11,0,26.6,47.6,23.71,22.45,-7.57,30.5,1.727,3.76E-03
32.7,39.25,0,26.6,47.6,23.71,22.49,-7.57,30.5,1.728,3.95E-03
33.7,39.39,0,26.6,47.6,23.71,22.53,-7.57,30.5,1.728,4.15E-03
34.7,39.51,0,26.6,47.6,23.72,22.56,-7.57,30.5,1.729,4.34E-03
35.7,39.61,0,26.6,47.6,23.72,22.59,-7.57,30.5,1.729,4.53E-03
36.7,39.79,0,26.6,47.6,23.72,22.62,-7.57,30.5,1.73,4.73E-03
37.7,39.94,0,26.6,47.5,23.72,22.65,-7.57,30.5,1.73,4.92E-03
38.8,40.05,0,26.6,47.5,23.72,22.68,-7.57,30.5,1.73,5.12E-03
39.8,40.16,0,26.6,47.5,23.73,22.7,-7.57,30.5,1.731,5.32E-03
40.8,40.29,0,26.6,47.5,23.73,22.73,-7.57,30.5,1.731,5.52E-03
41.8,40.47,0,26.6,47.5,23.73,22.76,-7.57,30.5,1.732,5.71E-03
42.8,40.55,0,26.6,47.5,23.74,22.78,-7.57,30.5,1.732,5.91E-03
43.9,40.58,0,26.6,47.5,23.74,22.8,-7.57,30.5,1.733,6.11E-03
44.9,40.61,0,26.6,47.5,23.74,22.81,-7.57,30.5,1.733,6.31E-03
45.9,40.75,0,26.6,47.5,23.74,22.83,-7.57,30.5,1.734,6.51E-03
46.9,40.83,0,26.6,47.5,23.74,22.85,-7.57,30.5,1.734,6.71E-03
47.9,40.87,0,26.6,47.5,23.74,22.86,-7.57,30.6,1.734,6.91E-03
48.9,40.93,0,26.6,47.5,23.74,22.88,-7.57,30.6,1.735,7.11E-03
50,41.04,0,26.6,47.5,23.74,22.9,-7.57,30.6,1.735,7.31E-03
51,41.15,0,26.6,47.5,23.74,22.92,-7.57,30.6,1.736,7.51E-03
52,41.2,0,26.6,47.5,23.74,22.94,-7.57,30.6,1.736,7.71E-03
53,41.19,0,26.6,47.5,23.75,22.94,-7.57,30.6,1.737,7.91E-03
54,41.2,0,26.7,47.4,23.75,22.95,-7.57,30.6,1.737,8.12E-03
55,41.24,0,26.7,47.4,23.75,22.95,-7.57,30.6,1.738,8.32E-03
56.1,41.32,0,26.7,47.4,23.75,22.96,-7.57,30.6,1.738,8.52E-03
57.1,41.39,0,26.7,47.4,23.75,22.98,-7.57,30.6,1.738,8.72E-03
58.1,41.46,0,26.7,47.4,23.75,22.99,-7.57,30.6,1.739,8.93E-03
59.1,41.57,0,26.7,47.4,23.75,23.01,-7.57,30.6,1.739,9.13E-03
60.1,41.67,0,26.7,47.4,23.75,23.03,-7.57,30.6,1.74,9.33E-03
61.2,41.69,0,26.7,47.4,23.75,23.05,-7.57,30.6,1.74,9.54E-03
62.2,41.7,0,26.7,47.4,23.75,23.06,-7.57,30.6,1.741,9.74E-03
63.2,41.77,0,26.7,47.4,23.75,23.07,-7.57,30.6,1.741,9.95E-03
64.2,41.8,0,26.7,47.3,23.75,23.08,-7.57,30.6,1.742,1.02E-02
65.2,41.83,0,26.7,47.3,23.75,23.09,-7.57,30.6,1.742,1.04E-02
66.3,41.88,0,26.7,47.3,23.75,23.1,-7.57,30.6,1.743,1.06E-02
67.3,41.98,0,26.7,47.3,23.75,23.11,-7.57,30.6,1.743,1.08E-02
68.3,42.08,0,26.6,47.3,23.75,23.13,-7.57,30.6,1.743,1.10E-02
69.3,42.13,0,26.6,47.3,23.75,23.15,-7.57,30.6,1.744,1.12E-02
70.3,42.19,0,26.6,47.3,23.75,23.16,-7.57,30.6,1.744,1.14E-02
71.3,42.3,0,26.6,47.3,23.75,23.19,-7.57,30.6,1.745,1.16E-02
72.4,42.38,0,26.6,47.3,23.75,23.21,-7.57,30.6,1.745,1.18E-02
73.4,42.47,0,26.6,47.3,23.75,23.23,-7.57,30.6,1.746,1.20E-02
74.4,42.54,0,26.6,47.3,23.75,23.24,-7.57,30.6,1.746,1.22E-02
75.4,42.63,0,26.6,47.3,23.75,23.26,-7.57,30.6,1.747,1.24E-02
76.4,42.72,0,26.6,47.3,23.75,23.28,-7.57,30.6,1.747,1.26E-02
77.4,42.76,0,26.6,47.3,23.75,23.3,-7.57,30.6,1.748,1.28E-02
78.5,42.87,0,26.6,47.3,23.75,23.32,-7.57,30.6,1.748,1.31E-02
79.5,42.92,0,26.6,47.3,23.75,23.33,-7.57,30.6,1.749,1.33E-02
80.5,43,0,26.6,47.3,23.75,23.35,-7.57,30.7,1.749,1.35E-02
81.5,43.04,0,26.6,47.3,23.75,23.37,-7.57,30.7,1.749,1.37E-02
82.5,43,0,26.6,47.3,23.75,23.37,-7.57,30.7,1.75,1.39E-02
83.5,43.04,0,26.6,47.3,23.75,23.38,-7.57,30.7,1.75,1.41E-02
84.6,43.06,0,26.6,47.3,23.75,23.38,-7.57,30.7,1.751,1.43E-02
85.6,43.12,0,26.6,47.3,23.75,23.39,-7.57,30.7,1.751,1.45E-02
86.6,43.12,0,26.6,47.3,23.75,23.4,-7.57,30.7,1.752,1.47E-02
87.6,43.19,0,26.6,47.3,23.75,23.41,-7.57,30.7,1.752,1.50E-02
88.7,43.25,0,26.6,47.3,23.75,23.42,-7.57,30.7,1.753,1.52E-02
89.7,43.3,0,26.6,47.3,23.75,23.43,-7.57,30.7,1.753,1.54E-02
90.7,43.32,0,26.6,47.3,23.75,23.44,-7.57,30.7,1.754,1.56E-02
91.7,43.31,0,26.6,47.3,23.75,23.44,-7.57,30.7,1.754,1.58E-02
92.7,43.3,0,26.6,47.3,23.75,23.44,-7.57,30.7,1.755,1.60E-02
93.8,43.27,0,26.6,47.3,23.75,23.44,-7.57,30.7,1.755,1.62E-02
94.8,43.26,0,26.6,47.3,23.75,23.44,-7.57,30.7,1.756,1.64E-02
95.8,43.3,0,26.6,47.3,23.74,23.44,-7.57,30.7,1.756,1.67E-02
96.8,43.24,0,26.6,47.3,23.74,23.44,-7.57,30.7,1.757,1.69E-02
97.8,43.25,0,26.6,47.3,23.74,23.44,-7.57,30.7,1.757,1.71E-02
98.9,43.31,0,26.6,47.3,23.74,23.45,-7.57,30.7,1.757,1.73E-02
99.9,43.3,0,26.7,47.3,23.74,23.46,-7.57,30.7,1.758,1.75E-02
100.9,43.33,0,26.7,47.2,23.74,23.48,-7.57,30.7,1.758,1.77E-02
101.9,43.31,0,26.7,47.2,23.74,23.48,-7.57,30.7,1.759,1.79E-02
102.9,43.34,0,26.7,47.2,23.74,23.49,-7.57,30.7,1.759,1.81E-02
104,43.34,0,26.7,47.2,23.74,23.49,-7.57,30.7,1.76,1.84E-02
105,43.37,0,26.7,47.2,23.73,23.5,-7.57,30.7,1.76,1.86E-02
106,43.57,0,26.7,47.2,23.73,23.51,-7.57,30.7,1.761,1.88E-02
107,43.66,0,26.7,47.2,23.74,23.53,-7.57,30.7,1.761,1.90E-02
108,43.69,0,26.7,47.2,23.74,23.54,-7.57,30.7,1.762,1.92E-02
109,43.7,0,26.7,47.2,23.74,23.55,-7.57,30.7,1.762,1.94E-02
110.1,43.75,0,26.7,47.1,23.74,23.56,-7.57,30.7,1.763,1.96E-02
111.1,43.77,0,26.7,47.1,23.74,23.56,-7.57,30.7,1.763,1.98E-02
112.1,43.72,0,26.7,47.1,23.74,23.56,-7.57,30.8,1.764,2.01E-02
113.1,43.77,0,26.7,47.1,23.74,23.56,-7.57,30.8,1.764,2.03E-02
114.1,43.83,0,26.7,47.1,23.74,23.57,-7.57,30.8,1.765,2.05E-02
115.2,43.9,0,26.7,47.1,23.74,23.58,-7.57,30.8,1.765,2.07E-02
116.2,43.98,0,26.7,47.1,23.74,23.6,-7.57,30.8,1.766,2.09E-02
117.2,44.02,0,26.7,47.1,23.74,23.61,-7.57,30.8,1.766,2.11E-02
118.2,44.12,0,26.7,47.1,23.74,23.63,-7.57,30.8,1.767,2.14E-02
119.2,44.11,0,26.7,47.1,23.74,23.64,-7.57,30.8,1.767,2.16E-02
120.2,44.21,0,26.7,47.1,23.74,23.66,-7.57,30.8,1.767,2.18E-02
121.3,44.2,0,26.7,47,23.73,23.67,-7.57,30.8,1.768,2.20E-02
122.3,44.21,0,26.7,47,23.73,23.67,-7.57,30.8,1.768,2.22E-02
123.3,44.26,0,26.7,47,23.73,23.68,-7.57,30.8,1.769,2.24E-02
124.3,44.27,0,26.7,47,23.73,23.69,-7.57,30.8,1.769,2.27E-02
125.3,44.25,0,26.7,47,23.73,23.69,-7.57,30.8,1.77,2.29E-02
126.4,44.23,0,26.7,47,23.73,23.69,-7.57,30.8,1.77,2.31E-02
127.4,44.28,0,26.7,47,23.73,23.69,-7.57,30.8,1.771,2.33E-02
128.4,44.28,0,26.7,47,23.73,23.7,-7.57,30.8,1.771,2.35E-02
129.4,44.21,0,26.7,47,23.73,23.7,-7.57,30.8,1.772,2.37E-02
130.4,44.18,0,26.7,47,23.73,23.69,-7.57,30.8,1.772,2.40E-02
131.5,44.22,0,26.7,47,23.73,23.69,-7.57,30.8,1.773,2.42E-02
132.5,44.19,0,26.7,47,23.73,23.69,-7.57,30.8,1.773,2.44E-02
133.5,44.22,0,26.7,47,23.73,23.69,-7.57,30.8,1.774,2.46E-02
134.5,44.19,0,26.7,47,23.73,23.68,-7.57,30.8,1.774,2.48E-02
135.5,44.19,0,26.7,47,23.73,23.68,-7.57,30.8,1.775,2.50E-02
136.5,44.22,0,26.7,47,23.73,23.68,-7.57,30.8,1.775,2.53E-02
137.5,44.2,0,26.7,47,23.73,23.68,-7.57,30.8,1.776,2.55E-02
138.6,44.21,0,26.7,47,23.73,23.68,-7.57,30.9,1.776,2.57E-02
139.6,44.18,0,26.7,47,23.72,23.67,-7.57,30.9,1.777,2.59E-02
140.6,44.24,0,26.7,47,23.73,23.68,-7.57,30.9,1.777,2.61E-02
141.6,44.21,0,26.7,47.1,23.73,23.68,-7.57,30.9,1.778,2.63E-02
142.6,44.21,0,26.7,47.1,23.73,23.68,-7.57,30.9,1.778,2.66E-02
143.7,44.19,0,26.7,47.1,23.73,23.67,-7.57,30.9,1.779,2.68E-02
144.7,44.17,0,26.7,47.1,23.73,23.67,-7.57,30.9,1.779,2.70E-02
145.7,44.19,0,26.7,47.1,23.73,23.66,-7.57,30.9,1.78,2.72E-02
146.7,44.09,0,26.7,47.1,23.73,23.65,-7.57,30.9,1.78,2.74E-02
147.8,43.94,0,26.7,47.1,23.73,23.63,-7.57,30.9,1.78,2.76E-02
148.8,43.87,0,26.6,47.1,23.73,23.62,-7.57,30.9,1.781,2.78E-02
149.8,43.8,0,26.6,47.1,23.73,23.6,-7.57,30.9,1.781,2.81E-02
150.8,43.8,0,26.6,47.1,23.73,23.59,-7.57,30.9,1.782,2.83E-02
151.8,43.71,0,26.6,47.1,23.73,23.58,-7.57,30.9,1.782,2.85E-02
152.8,43.7,0,26.6,47.1,23.73,23.57,-7.57,30.9,1.783,2.87E-02
153.8,43.69,0,26.6,47.1,23.73,23.56,-7.57,30.9,1.783,2.89E-02
154.9,43.63,0,26.6,47.1,23.73,23.55,-7.57,30.9,1.784,2.91E-02
155.9,43.63,0,26.6,47.1,23.73,23.55,-7.57,30.9,1.784,2.93E-02
156.9,43.54,0,26.6,47.1,23.73,23.53,-7.57,30.9,1.785,2.96E-02
157.9,43.53,0,26.6,47.1,23.74,23.52,-7.57,30.9,1.785,2.98E-02
158.9,43.52,0,26.6,47.1,23.74,23.52,-7.57,30.9,1.786,3.00E-02
160,43.41,0,26.6,47.1,23.74,23.5,-7.57,30.9,1.786,3.02E-02
161,43.34,0,26.6,47.1,23.74,23.49,-7.57,30.9,1.787,3.04E-02
162,43.34,0,26.6,47.1,23.74,23.48,-7.57,30.9,1.787,3.06E-02
163,43.27,0,26.6,47.1,23.74,23.46,-7.57,30.9,1.788,3.08E-02
164,43.22,0,26.6,47.1,23.73,23.45,-7.57,30.9,1.788,3.10E-02
165,43.16,0,26.6,47.2,23.74,23.44,-7.57,30.9,1.789,3.13E-02
166.1,43.17,0,26.5,47.2,23.74,23.43,-7.57,30.9,1.789,3.15E-02
167.1,43.21,0,26.5,47.2,23.74,23.43,-7.57,30.9,1.789,3.17E-02
168.1,43.14,0,26.5,47.2,23.74,23.43,-7.57,31,1.79,3.19E-02
169.1,43.19,0,26.5,47.2,23.74,23.43,-7.57,31,1.79,3.21E-02
170.1,43.2,0,26.5,47.2,23.74,23.43,-7.57,31,1.791,3.23E-02
171.2,43.17,0,26.5,47.2,23.74,23.43,-7.57,31,1.791,3.25E-02
172.2,43.21,0,26.5,47.2,23.74,23.42,-7.57,31,1.792,3.27E-02
173.2,43.16,0,26.5,47.2,23.74,23.41,-7.57,31,1.792,3.29E-02
174.2,43.15,0,26.5,47.1,23.74,23.4,-7.57,31,1.793,3.32E-02
175.2,42.99,0,26.5,47.2,23.74,23.39,-7.57,31,1.793,3.34E-02
176.3,42.99,0,26.5,47.2,23.74,23.39,-7.57,31,1.794,3.36E-02
177.3,42.95,0,26.5,47.2,23.74,23.38,-7.57,31,1.794,3.38E-02
178.3,42.94,0,26.5,47.2,23.74,23.37,-7.57,31,1.795,3.40E-02
179.3,42.97,0,26.5,47.2,23.74,23.37,-7.57,31,1.795,3.42E-02
180.3,42.97,0,26.5,47.2,23.74,23.37,-7.57,31,1.796,3.44E-02
181.4,43.05,0,26.5,47.2,23.74,23.38,-7.57,31,1.796,3.46E-02
182.4,42.96,0,26.5,47.2,23.74,23.37,-7.57,31,1.797,3.48E-02
183.4,43.05,0,26.5,47.2,23.75,23.38,-7.57,31,1.797,3.51E-02
184.4,43.05,0,26.5,47.2,23.75,23.38,-7.57,31,1.797,3.53E-02
185.5,43.03,0,26.5,47.2,23.75,23.38,-7.57,31,1.798,3.55E-02
186.5,43,0,26.4,47.2,23.75,23.38,-7.57,31,1.798,3.57E-02
187.5,42.97,0,26.4,47.2,23.75,23.37,-7.57,31,1.799,3.59E-02
188.5,42.98,0,26.4,47.2,23.75,23.36,-7.57,31,1.799,3.61E-02
189.5,42.96,0,26.4,47.2,23.75,23.35,-7.57,31,1.8,3.63E-02
190.5,42.79,0,26.4,47.2,23.75,23.33,-7.57,31,1.8,3.65E-02
191.6,42.78,0,26.4,47.2,23.75,23.32,-7.57,31,1.801,3.67E-02
192.6,42.81,0,26.4,47.3,23.76,23.32,-7.57,31,1.801,3.70E-02
193.6,42.79,0,26.4,47.3,23.76,23.31,-7.57,31,1.802,3.72E-02
194.6,42.83,0,26.4,47.3,23.76,23.31,-7.57,31,1.802,3.74E-02
195.6,42.84,0,26.4,47.3,23.76,23.31,-7.57,31,1.803,3.76E-02
196.7,42.87,0,26.4,47.3,23.76,23.32,-7.57,31,1.803,3.78E-02
197.7,42.85,0,26.4,47.3,23.76,23.32,-7.57,31,1.804,3.80E-02
198.7,42.86,0,26.4,47.3,23.76,23.32,-7.57,31,1.804,3.82E-02
199.7,42.84,0,26.3,47.3,23.76,23.31,-7.57,31,1.804,3.84E-02
200.7,42.8,0,26.3,47.4,23.76,23.3,-7.57,31,1.805,3.86E-02
201.8,42.76,0,26.3,47.4,23.76,23.29,-7.57,31,1.805,3.88E-02
202.8,42.66,0,26.3,47.4,23.76,23.28,-7.57,31,1.806,3.91E-02
203.8,42.62,0,26.3,47.4,23.77,23.27,-7.57,31,1.806,3.93E-02
204.8,42.63,0,26.3,47.4,23.77,23.26,-7.57,31,1.807,3.95E-02
205.8,42.59,0,26.3,47.4,23.77,23.26,-7.57,31,1.807,3.97E-02
206.8,42.68,0,26.3,47.4,23.77,23.26,-7.57,31,1.808,3.99E-02
207.8,42.71,0,26.3,47.4,23.77,23.27,-7.57,31,1.808,4.01E-02
208.9,42.66,0,26.3,47.4,23.77,23.27,-7.57,31.1,1.809,4.03E-02
209.9,42.68,0,26.3,47.5,23.77,23.27,-7.57,31.1,1.809,4.05E-02
210.9,42.66,0,26.3,47.5,23.77,23.26,-7.57,31.1,1.81,4.07E-02
211.9,42.69,0,26.2,47.5,23.77,23.26,-7.57,31.1,1.81,4.09E-02
213,42.69,0,26.2,47.5,23.77,23.26,-7.57,31.1,1.81,4.11E-02
214,42.66,0,26.2,47.5,23.77,23.26,-7.57,31.1,1.811,4.14E-02
215,42.66,0,26.2,47.5,23.78,23.25,-7.57,31.1,1.811,4.16E-02
216,42.69,0,26.2,47.5,23.78,23.25,-7.57,31.1,1.812,4.18E-02
217,42.66,0,26.2,47.5,23.78,23.25,-7.57,31.1,1.812,4.20E-02
218.1,42.65,0,26.2,47.6,23.78,23.24,-7.57,31.1,1.813,4.22E-02
219.1,42.59,0,26.2,47.6,23.78,23.23,-7.57,31.1,1.813,4.24E-02
220.1,42.64,0,26.2,47.6,23.79,23.22,-7.57,31.1,1.814,4.26E-02
221.1,42.61,0,26.2,47.6,23.79,23.21,-7.57,31.1,1.814,4.28E-02
222.1,42.59,0,26.2,47.6,23.79,23.2,-7.57,31.1,1.815,4.30E-02
223.2,42.48,0,26.2,47.6,23.79,23.2,-7.57,31.1,1.815,4.32E-02
224.2,42.45,0,26.2,47.6,23.79,23.19,-7.57,31.1,1.816,4.34E-02
225.2,42.47,0,26.1,47.6,23.79,23.19,-7.57,31.1,1.816,4.37E-02
226.2,42.34,0,26.1,47.7,23.79,23.18,-7.57,31.1,1.817,4.39E-02
227.2,42.32,0,26.1,47.7,23.79,23.16,-7.57,31.1,1.817,4.41E-02
228.3,42.27,0,26.1,47.7,23.79,23.15,-7.57,31.1,1.817,4.43E-02
229.3,42.23,0,26.1,47.7,23.79,23.14,-7.57,31.1,1.818,4.45E-02
230.3,42.21,0,26.1,47.7,23.79,23.13,-7.57,31.1,1.818,4.47E-02
231.3,42.19,0,26.1,47.7,23.8,23.12,-7.57,31.1,1.819,4.49E-02
232.3,42.22,0,26.1,47.7,23.8,23.12,-7.57,31.1,1.819,4.51E-02
233.3,42.24,0,26.1,47.7,23.8,23.12,-7.57,31.1,1.82,4.53E-02
234.4,42.25,0,26.1,47.7,23.8,23.12,-7.57,31.1,1.82,4.55E-02
235.4,42.26,0,26.1,47.7,23.8,23.12,-7.57,31.1,1.821,4.57E-02
236.4,42.31,0,26.1,47.7,23.81,23.13,-7.57,31.1,1.821,4.59E-02
237.4,42.28,0,26.1,47.7,23.81,23.13,-7.57,31.1,1.822,4.61E-02
238.4,42.29,0,26.1,47.7,23.81,23.13,-7.57,31.1,1.822,4.63E-02
239.5,42.29,0,26.1,47.7,23.81,23.13,-7.57,31.1,1.823,4.66E-02
240.5,42.28,0,26.1,47.7,23.81,23.13,-7.57,31.1,1.823,4.68E-02
241.5,42.31,0,26.1,47.7,23.81,23.13,-7.57,31.1,1.823,4.70E-02
242.5,42.29,0,26.1,47.7,23.81,23.13,-7.57,31.1,1.824,4.72E-02
243.5,42.32,0,26.1,47.7,23.81,23.14,-7.57,31.1,1.824,4.74E-02
244.5,42.31,0,26.1,47.7,23.81,23.14,-7.57,31.1,1.825,4.76E-02
245.5,42.33,0,26.1,47.6,23.81,23.14,-7.57,31.1,1.825,4.78E-02
246.6,42.33,0,26.1,47.6,23.82,23.14,-7.57,31.1,1.826,4.80E-02
247.6,42.28,0,26.1,47.6,23.82,23.13,-7.57,31.1,1.826,4.82E-02
248.6,42.29,0,26.1,47.6,23.82,23.11,-7.57,31.1,1.827,4.84E-02
249.6,42.3,0,26.1,47.6,23.83,23.1,-7.57,31.1,1.827,4.86E-02
250.7,42.29,0,26.1,47.6,23.83,23.09,-7.57,31.1,1.828,4.88E-02
251.7,42.21,0,26.1,47.6,23.83,23.08,-7.57,31.1,1.828,4.90E-02
252.7,42.19,0,26.1,47.6,23.84,23.07,-7.57,31.1,1.828,4.92E-02
253.7,42.19,0,26.1,47.6,23.84,23.07,-7.57,31.1,1.829,4.95E-02
254.7,42.12,0,26.1,47.6,23.84,23.06,-7.57,31.1,1.829,4.97E-02
255.8,41.97,0,26.1,47.6,23.84,23.04,-7.57,31.1,1.83,4.99E-02
256.8,41.87,0,26.1,47.6,23.83,23.02,-7.57,31.1,1.83,5.01E-02
257.8,41.79,0,26.1,47.6,23.83,23,-7.57,31.1,1.831,5.03E-02
258.8,41.7,0,26.1,47.5,23.83,22.98,-7.57,31.1,1.831,5.05E-02
259.8,41.7,0,26.1,47.5,23.83,22.97,-7.57,31.1,1.832,5.07E-02
260.9,41.66,0,26.1,47.5,23.83,22.96,-7.57,31.1,1.832,5.09E-02
261.9,41.59,0,26.1,47.5,23.84,22.94,-7.57,31.1,1.833,5.11E-02
262.9,41.6,0,26.1,47.5,23.84,22.93,-7.57,31.1,1.833,5.13E-02
263.9,41.43,0,26.1,47.5,23.84,22.91,-7.57,31.1,1.834,5.15E-02
264.9,41.37,0,26.1,47.5,23.84,22.89,-7.57,31.1,1.834,5.17E-02
266,41.27,0,26.1,47.5,23.85,22.86,-7.57,31.2,1.834,5.19E-02
267,41.23,0,26.1,47.5,23.85,22.84,-7.57,31.2,1.835,5.21E-02
268,41.29,0,26.1,47.5,23.85,22.83,-7.57,31.2,1.835,5.23E-02
269,41.23,0,26.1,47.4,23.86,22.82,-7.57,31.2,1.836,5.25E-02
270,41.26,0,26.1,47.4,23.86,22.82,-7.57,31.2,1.836,5.27E-02
271,41.19,0,26.1,47.4,23.86,22.81,-7.57,31.2,1.837,5.29E-02
272.1,41.18,0,26.1,47.4,23.86,22.8,-7.57,31.2,1.837,5.31E-02
273.1,41.16,0,26.1,47.4,23.86,22.8,-7.57,31.2,1.838,5.33E-02
274.1,41.07,0,26.1,47.4,23.86,22.78,-7.57,31.2,1.838,5.35E-02
275.1,41.06,0,26.1,47.4,23.86,22.77,-7.57,31.2,1.838,5.37E-02
276.1,41.07,0,26.1,47.4,23.87,22.77,-7.57,31.2,1.839,5.39E-02
277.2,41.1,0,26.1,47.4,23.87,22.77,-7.57,31.2,1.839,5.41E-02
278.2,41.07,0,26.1,47.3,23.87,22.76,-7.57,31.2,1.84,5.43E-02
279.2,41.05,0,26.1,47.3,23.87,22.76,-7.57,31.2,1.84,5.45E-02
280.2,41.13,0,26.1,47.3,23.87,22.76,-7.57,31.2,1.841,5.47E-02
281.2,41.16,0,26.1,47.3,23.87,22.76,-7.57,31.2,1.841,5.49E-02
282.3,41.17,0,26.2,47.3,23.88,22.77,-7.57,31.2,1.842,5.51E-02
283.3,41.19,0,26.2,47.3,23.88,22.78,-7.57,31.2,1.842,5.53E-02
284.3,41.34,0,26.2,47.3,23.88,22.79,-7.57,31.2,1.842,5.55E-02
285.3,41.37,0,26.2,47.3,23.88,22.8,-7.57,31.2,1.843,5.57E-02
286.3,41.45,0,26.2,47.2,23.89,22.81,-7.57,31.2,1.843,5.59E-02
287.3,41.45,0,26.2,47.2,23.89,22.82,-7.57,31.2,1.844,5.61E-02
288.3,41.48,0,26.2,47.2,23.89,22.82,-7.57,31.2,1.844,5.63E-02
289.4,41.49,0,26.2,47.2,23.89,22.82,-7.57,31.2,1.845,5.65E-02
290.4,41.44,0,26.2,47.2,23.89,22.82,-7.57,31.2,1.845,5.68E-02
291.4,41.47,0,26.2,47.2,23.9,22.82,-7.57,31.2,1.846,5.70E-02
292.4,41.48,0,26.2,47.1,23.9,22.82,-7.57,31.2,1.846,5.72E-02
293.5,41.49,0,26.2,47.1,23.9,22.82,-7.57,31.2,1.847,5.74E-02
294.5,41.5,0,26.2,47.1,23.9,22.82,-7.57,31.2,1.847,5.76E-02
295.5,41.47,0,26.2,47.1,23.9,22.82,-7.57,31.2,1.847,5.78E-02
296.5,41.52,0,26.2,47.1,23.9,22.83,-7.57,31.2,1.848,5.80E-02
297.5,41.69,0,26.2,47.1,23.91,22.84,-7.57,31.2,1.848,5.82E-02
298.5,41.78,0,26.2,47.1,23.91,22.86,-7.57,31.2,1.849,5.84E-02
299.6,41.81,0,26.2,47,23.91,22.87,-7.57,31.2,1.849,5.86E-02
300.6,41.91,0,26.2,47,23.91,22.89,-7.57,31.2,1.85,5.88E-02
301.6,41.9,0,26.2,47,23.91,22.89,-7.57,31.2,1.85,5.90E-02
302.6,41.89,0,26.2,47,23.92,22.89,-7.57,31.2,1.851,5.92E-02
303.6,41.94,0,26.2,47,23.92,22.9,-7.57,31.2,1.851,5.94E-02
304.7,41.93,0,26.2,47,23.92,22.9,-7.57,31.2,1.852,5.96E-02
305.7,42.05,0,26.2,47,23.92,22.91,-7.57,31.2,1.852,5.98E-02
306.7,42.05,0,26.2,47,23.92,22.91,-7.57,31.2,1.852,6.00E-02
307.7,42.15,0,26.2,46.9,23.93,22.92,-7.57,31.2,1.853,6.02E-02
308.7,42.25,0,26.2,46.9,23.93,22.94,-7.57,31.2,1.853,6.04E-02
309.8,42.32,0,26.2,46.9,23.93,22.95,-7.57,31.2,1.854,6.07E-02
310.8,42.44,0,26.2,46.9,23.94,22.97,-7.57,31.2,1.854,6.09E-02
311.8,42.45,0,26.2,46.9,23.94,22.98,-7.57,31.2,1.855,6.11E-02
312.8,42.48,0,26.2,46.9,23.94,22.99,-7.57,31.2,1.855,6.13E-02
313.8,42.52,0,26.2,46.9,23.94,23,-7.57,31.2,1.856,6.15E-02
314.9,42.54,0,26.2,46.9,23.94,23.01,-7.57,31.2,1.856,6.17E-02
315.9,42.58,0,26.2,46.9,23.94,23.01,-7.57,31.2,1.857,6.19E-02
316.9,42.61,0,26.2,46.9,23.94,23.02,-7.57,31.2,1.857,6.21E-02
317.9,42.69,0,26.2,46.9,23.94,23.03,-7.57,31.2,1.858,6.23E-02
318.9,42.76,0,26.2,46.9,23.95,23.04,-7.57,31.2,1.858,6.25E-02
320,42.85,0,26.2,46.9,23.95,23.05,-7.57,31.2,1.858,6.27E-02
321,42.88,0,26.2,46.9,23.95,23.06,-7.57,31.2,1.859,6.30E-02
322,42.94,0,26.2,46.9,23.95,23.07,-7.57,31.2,1.859,6.32E-02
323,42.92,0,26.2,46.9,23.96,23.07,-7.57,31.2,1.86,6.34E-02
324,42.95,0,26.2,46.9,23.96,23.08,-7.57,31.2,1.86,6.36E-02
325,42.92,0,26.2,46.9,23.96,23.08,-7.57,31.2,1.861,6.38E-02
326,42.9,0,26.1,46.9,23.96,23.07,-7.57,31.2,1.861,6.40E-02
327.1,42.96,0,26.1,46.9,23.96,23.08,-7.57,31.2,1.862,6.42E-02
