Time [sec],Flux [g/(m2h)],Mark,AmbT [C],AmbRH [%],ProbeT [C],ProbeRH [%],CondenserT [C],HeatsinkT [C],Ice [mg],Qty [g/m2]
0,0.5,0,26.5,49.5,23.74,13.37,-7.57,30.2,0.81,2.45E-06
1,0.57,0,26.5,49.5,23.74,13.38,-7.57,30.2,0.81,5.26E-06
2,0.92,0,26.5,49.5,23.74,13.43,-7.57,30.2,0.81,9.76E-06
3,1.79,0,26.5,49.5,23.74,13.56,-7.57,30.2,0.81,1.85E-05
4.1,3.19,0,26.5,49.5,23.74,13.79,-7.57,30.2,0.81,3.41E-05
5.1,5.03,0,26.5,49.6,23.74,14.12,-7.57,30.2,0.81,5.87E-05
6.1,7.7,0,26.5,49.6,23.74,14.59,-7.57,30.2,0.811,9.63E-05
7.1,10.64,0,26.5,49.6,23.74,15.18,-7.57,30.2,0.811,1.48E-04
8.1,13.87,0,26.5,49.6,23.74,15.85,-7.57,30.2,0.811,2.16E-04
9.1,17.1,0,26.5,49.6,23.74,16.57,-7.57,30.2,0.811,3.00E-04
10.2,20.21,0,26.5,49.6,23.74,17.29,-7.57,30.2,0.811,3.98E-04
11.2,23.2,0,26.5,49.7,23.74,18,-7.57,30.2,0.811,5.12E-04
12.2,25.76,0,26.5,49.7,23.75,18.66,-7.57,30.2,0.812,6.38E-04
13.2,28.1,0,26.5,49.7,23.75,19.26,-7.57,30.2,0.812,7.75E-04
14.2,30.26,0,26.5,49.7,23.75,19.82,-7.57,30.2,0.812,9.23E-04
15.2,32.07,0,26.5,49.7,23.75,20.31,-7.57,30.2,0.813,1.08E-03
16.3,33.62,0,26.5,49.8,23.75,20.73,-7.57,30.2,0.813,1.24E-03
17.3,35,0,26.5,49.8,23.75,21.11,-7.57,30.2,0.813,1.41E-03
18.3,36.16,0,26.5,49.8,23.75,21.44,-7.57,30.2,0.814,1.59E-03
19.3,37.24,0,26.5,49.8,23.75,21.73,-7.57,30.2,0.814,1.77E-03
20.3,38.13,0,26.5,49.8,23.75,21.97,-7.57,30.2,0.815,1.96E-03
21.3,38.93,0,26.5,49.9,23.75,22.19,-7.57,30.2,0.815,2.15E-03
22.3,39.62,0,26.5,49.9,23.75,22.39,-7.57,30.2,0.816,2.34E-03
23.4,40.15,0,26.5,49.9,23.75,22.54,-7.57,30.2,0.816,2.54E-03
24.4,40.65,0,26.5,49.9,23.75,22.68,-7.57,30.2,0.816,2.74E-03
25.4,41.06,0,26.5,49.9,23.75,22.8,-7.57,30.3,0.817,2.94E-03
26.4,41.34,0,26.5,49.9,23.75,22.89,-7.57,30.3,0.817,3.14E-03
27.5,41.56,0,26.5,50,23.75,22.96,-7.57,30.3,0.818,3.35E-03
28.5,41.75,0,26.5,50,23.75,23.02,-7.57,30.3,0.818,3.55E-03
29.5,41.95,0,26.6,50,23.75,23.07,-7.57,30.3,0.819,3.76E-03
30.5,42.05,0,26.6,50,23.75,23.11,-7.57,30.3,0.819,3.96E-03
31.5,42.11,0,26.6,50,23.75,23.13,-7.57,30.3,0.82,4.17E-03
32.5,42.21,0,26.6,50,23.75,23.16,-7.57,30.3,0.82,4.38E-03
33.6,42.32,0,26.6,50,23.75,23.19,-7.57,30.3,0.821,4.59E-03
34.6,42.41,0,26.6,50,23.75,23.21,-7.57,30.3,0.821,4.80E-03
35.6,42.44,0,26.6,50,23.75,23.23,-7.57,30.3,0.821,5.00E-03
36.6,42.49,0,26.6,50,23.75,23.24,-7.57,30.3,0.822,5.21E-03
37.6,42.54,0,26.6,50,23.75,23.25,-7.57,30.3,0.822,5.42E-03
38.7,42.53,0,26.6,50,23.75,23.25,-7.57,30.3,0.823,5.63E-03
39.7,42.46,0,26.6,50,23.75,23.25,-7.57,30.3,0.823,5.83E-03
40.7,42.36,0,26.6,50,23.75,23.23,-7.57,30.3,0.824,6.04E-03
41.7,42.31,0,26.6,50,23.75,23.22,-7.57,30.3,0.824,6.25E-03
42.8,42.28,0,26.6,50,23.75,23.21,-7.57,30.3,0.825,6.46E-03
43.8,42.17,0,26.6,50,23.75,23.2,-7.57,30.3,0.825,6.67E-03
44.8,42.08,0,26.6,50,23.75,23.18,-7.57,30.3,0.826,6.88E-03
45.8,42.01,0,26.6,50,23.75,23.16,-7.57,30.3,0.826,7.08E-03
46.8,41.98,0,26.6,50,23.74,23.15,-7.57,30.3,0.827,7.29E-03
47.9,41.95,0,26.6,50,23.74,23.14,-7.57,30.3,0.827,7.50E-03
48.9,41.82,0,26.6,50,23.74,23.12,-7.57,30.3,0.827,7.70E-03
49.9,41.76,0,26.7,50,23.74,23.11,-7.57,30.3,0.828,7.91E-03
50.9,41.77,0,26.7,50,23.74,23.1,-7.57,30.3,0.828,8.11E-03
52,41.7,0,26.7,50,23.74,23.09,-7.57,30.3,0.829,8.32E-03
53,41.66,0,26.7,50,23.74,23.08,-7.57,30.3,0.829,8.52E-03
54,41.51,0,26.7,50,23.73,23.06,-7.57,30.3,0.83,8.73E-03
55,41.46,0,26.7,50,23.73,23.05,-7.57,30.3,0.83,8.93E-03
56,41.38,0,26.7,49.9,23.73,23.03,-7.57,30.3,0.831,9.13E-03
57,41.22,0,26.7,49.9,23.73,23.01,-7.57,30.3,0.831,9.33E-03
58.1,41.17,0,26.7,49.9,23.73,22.99,-7.57,30.3,0.831,9.53E-03
59.1,41.06,0,26.7,49.9,23.73,22.97,-7.57,30.3,0.832,9.73E-03
60.1,41.05,0,26.7,49.8,23.72,22.96,-7.57,30.3,0.832,9.93E-03
61.1,40.98,0,26.7,49.8,23.72,22.94,-7.57,30.3,0.833,1.01E-02
62.1,40.96,0,26.7,49.8,23.72,22.93,-7.57,30.3,0.833,1.03E-02
63.1,40.87,0,26.7,49.8,23.72,22.92,-7.57,30.3,0.834,1.05E-02
64.2,40.83,0,26.7,49.8,23.72,22.91,-7.57,30.3,0.834,1.07E-02
65.2,40.78,0,26.7,49.7,23.72,22.9,-7.57,30.3,0.835,1.09E-02
66.2,40.75,0,26.7,49.7,23.71,22.9,-7.57,30.3,0.835,1.11E-02
67.2,40.71,0,26.7,49.7,23.71,22.89,-7.57,30.3,0.836,1.13E-02
68.3,40.62,0,26.7,49.7,23.71,22.88,-7.57,30.3,0.836,1.15E-02
69.3,40.62,0,26.7,49.7,23.71,22.87,-7.57,30.3,0.836,1.17E-02
70.3,40.53,0,26.7,49.7,23.7,22.86,-7.57,30.3,0.837,1.19E-02
71.3,40.48,0,26.7,49.6,23.7,22.85,-7.57,30.3,0.837,1.21E-02
72.3,40.41,0,26.7,49.6,23.7,22.84,-7.57,30.3,0.838,1.23E-02
73.3,40.39,0,26.7,49.6,23.7,22.83,-7.57,30.3,0.838,1.25E-02
74.4,40.41,0,26.7,49.6,23.7,22.83,-7.57,30.3,0.839,1.27E-02
75.4,40.36,0,26.7,49.6,23.7,22.82,-7.57,30.3,0.839,1.29E-02
76.4,40.37,0,26.7,49.6,23.69,22.82,-7.57,30.3,0.839,1.31E-02
77.4,40.34,0,26.7,49.6,23.69,22.82,-7.57,30.3,0.84,1.33E-02
78.4,40.36,0,26.7,49.6,23.69,22.83,-7.57,30.3,0.84,1.35E-02
79.5,40.32,0,26.7,49.6,23.68,22.83,-7.57,30.3,0.841,1.37E-02
80.5,40.32,0,26.7,49.5,23.68,22.83,-7.57,30.3,0.841,1.39E-02
81.5,40.37,0,26.7,49.5,23.68,22.83,-7.57,30.3,0.842,1.41E-02
82.5,40.36,0,26.7,49.5,23.68,22.83,-7.57,30.3,0.842,1.43E-02
83.5,40.38,0,26.7,49.5,23.67,22.83,-7.57,30.3,0.843,1.45E-02
84.5,40.33,0,26.7,49.5,23.67,22.83,-7.57,30.3,0.843,1.47E-02
85.6,40.33,0,26.7,49.5,23.67,22.83,-7.57,30.3,0.843,1.49E-02
86.6,40.31,0,26.7,49.5,23.67,22.83,-7.57,30.3,0.844,1.51E-02
87.6,40.31,0,26.7,49.5,23.66,22.83,-7.57,30.3,0.844,1.53E-02
88.6,40.32,0,26.7,49.5,23.66,22.83,-7.57,30.3,0.845,1.55E-02
89.6,40.28,0,26.7,49.5,23.66,22.83,-7.57,30.3,0.845,1.57E-02
90.7,40.28,0,26.7,49.5,23.66,22.83,-7.57,30.3,0.846,1.59E-02
91.7,40.26,0,26.7,49.4,23.65,22.83,-7.57,30.3,0.846,1.61E-02
92.7,40.22,0,26.7,49.4,23.65,22.83,-7.57,30.3,0.846,1.63E-02
93.7,40.23,0,26.7,49.4,23.65,22.83,-7.57,30.3,0.847,1.65E-02
94.7,40.15,0,26.7,49.4,23.65,22.82,-7.57,30.3,0.847,1.67E-02
95.7,39.97,0,26.7,49.4,23.65,22.8,-7.57,30.3,0.848,1.69E-02
96.8,39.93,0,26.7,49.4,23.65,22.79,-7.57,30.3,0.848,1.71E-02
97.8,39.88,0,26.7,49.4,23.64,22.78,-7.57,30.3,0.849,1.73E-02
98.8,39.85,0,26.7,49.4,23.64,22.78,-7.57,30.3,0.849,1.75E-02
99.8,39.83,0,26.7,49.4,23.64,22.77,-7.57,30.3,0.85,1.76E-02
100.8,39.9,0,26.7,49.4,23.64,22.78,-7.57,30.3,0.85,1.78E-02
101.8,39.97,0,26.7,49.4,23.63,22.8,-7.57,30.3,0.85,1.80E-02
102.8,40.01,0,26.7,49.4,23.63,22.81,-7.57,30.3,0.851,1.82E-02
103.9,40.08,0,26.7,49.4,23.63,22.83,-7.57,30.3,0.851,1.84E-02
104.9,40.07,0,26.7,49.3,23.63,22.83,-7.57,30.3,0.852,1.86E-02
105.9,40.05,0,26.7,49.3,23.62,22.84,-7.57,30.3,0.852,1.88E-02
106.9,39.96,0,26.7,49.3,23.62,22.83,-7.57,30.3,0.853,1.90E-02
107.9,39.92,0,26.7,49.3,23.62,22.83,-7.57,30.4,0.853,1.92E-02
109,39.88,0,26.7,49.3,23.61,22.82,-7.57,30.4,0.853,1.94E-02
110,39.88,0,26.7,49.3,23.61,22.82,-7.57,30.4,0.854,1.96E-02
111,39.97,0,26.7,49.3,23.6,22.83,-7.57,30.4,0.854,1.98E-02
112,39.98,0,26.7,49.3,23.6,22.84,-7.57,30.4,0.855,2.00E-02
113,40,0,26.7,49.3,23.6,22.85,-7.57,30.4,0.855,2.02E-02
114.1,40,0,26.7,49.3,23.6,22.86,-7.57,30.4,0.856,2.04E-02
115.1,39.99,0,26.7,49.3,23.59,22.87,-7.57,30.4,0.856,2.06E-02
116.1,39.98,0,26.7,49.3,23.59,22.88,-7.57,30.4,0.857,2.08E-02
117.1,39.97,0,26.7,49.3,23.59,22.88,-7.57,30.4,0.857,2.10E-02
118.1,39.99,0,26.7,49.3,23.59,22.89,-7.57,30.4,0.857,2.12E-02
119.2,40.01,0,26.7,49.3,23.58,22.9,-7.57,30.4,0.858,2.14E-02
120.2,40.12,0,26.7,49.2,23.58,22.91,-7.57,30.4,0.858,2.16E-02
121.2,40.22,0,26.7,49.2,23.58,22.92,-7.57,30.4,0.859,2.18E-02
122.2,40.33,0,26.7,49.2,23.58,22.94,-7.57,30.4,0.859,2.20E-02
123.3,40.44,0,26.7,49.2,23.58,22.97,-7.57,30.4,0.86,2.22E-02
124.3,40.49,0,26.7,49.2,23.58,22.99,-7.57,30.4,0.86,2.24E-02
125.3,40.5,0,26.7,49.2,23.58,23,-7.57,30.4,0.86,2.26E-02
126.3,40.57,0,26.7,49.2,23.57,23.01,-7.57,30.4,0.861,2.28E-02
127.3,40.58,0,26.7,49.2,23.57,23.02,-7.57,30.4,0.861,2.30E-02
128.3,40.59,0,26.7,49.2,23.57,23.03,-7.57,30.4,0.862,2.32E-02
129.4,40.59,0,26.7,49.2,23.57,23.04,-7.57,30.4,0.862,2.34E-02
130.4,40.67,0,26.7,49.2,23.57,23.05,-7.57,30.4,0.863,2.36E-02
131.4,40.69,0,26.7,49.2,23.57,23.06,-7.57,30.4,0.863,2.38E-02
132.4,40.72,0,26.7,49.2,23.56,23.07,-7.57,30.4,0.864,2.40E-02
133.4,40.71,0,26.7,49.2,23.56,23.07,-7.57,30.4,0.864,2.42E-02
134.4,40.74,0,26.7,49.2,23.56,23.08,-7.57,30.4,0.864,2.44E-02
135.5,40.81,0,26.7,49.2,23.56,23.09,-7.57,30.4,0.865,2.46E-02
136.5,40.79,0,26.7,49.2,23.56,23.09,-7.57,30.4,0.865,2.48E-02
137.5,40.84,0,26.7,49.2,23.56,23.1,-7.57,30.4,0.866,2.50E-02
138.5,40.79,0,26.7,49.2,23.56,23.1,-7.57,30.4,0.866,2.52E-02
139.5,40.76,0,26.8,49.1,23.55,23.1,-7.57,30.4,0.867,2.54E-02
140.6,40.72,0,26.8,49.1,23.55,23.1,-7.57,30.4,0.867,2.56E-02
141.6,40.73,0,26.8,49.1,23.55,23.1,-7.57,30.4,0.868,2.58E-02
142.6,40.73,0,26.8,49.1,23.55,23.1,-7.57,30.4,0.868,2.60E-02
143.6,40.75,0,26.8,49.1,23.54,23.11,-7.57,30.4,0.868,2.61E-02
144.6,40.75,0,26.8,49.1,23.54,23.11,-7.57,30.4,0.869,2.63E-02
145.6,40.82,0,26.8,49.1,23.54,23.13,-7.57,30.4,0.869,2.65E-02
146.7,40.78,0,26.8,49.1,23.54,23.13,-7.57,30.4,0.87,2.67E-02
147.7,40.77,0,26.8,49.1,23.54,23.14,-7.57,30.4,0.87,2.69E-02
148.7,40.76,0,26.8,49.1,23.54,23.14,-7.57,30.4,0.871,2.71E-02
149.7,40.8,0,26.8,49.1,23.54,23.14,-7.57,30.4,0.871,2.73E-02
150.7,40.99,0,26.8,49.1,23.54,23.16,-7.57,30.4,0.872,2.75E-02
151.7,40.99,0,26.8,49.1,23.54,23.17,-7.57,30.4,0.872,2.77E-02
152.8,41.11,0,26.8,49.1,23.53,23.19,-7.57,30.4,0.872,2.79E-02
153.8,41.14,0,26.8,49.1,23.53,23.21,-7.57,30.4,0.873,2.81E-02
154.8,41.24,0,26.8,49.1,23.53,23.23,-7.57,30.4,0.873,2.83E-02
155.8,41.23,0,26.8,49.1,23.53,23.24,-7.57,30.4,0.874,2.86E-02
156.8,41.24,0,26.8,49.1,23.52,23.25,-7.57,30.4,0.874,2.88E-02
157.8,41.35,0,26.8,49.1,23.52,23.26,-7.57,30.4,0.875,2.90E-02
158.8,41.35,0,26.8,49.1,23.52,23.27,-7.57,30.4,0.875,2.92E-02
159.9,41.42,0,26.8,49.1,23.52,23.28,-7.57,30.4,0.876,2.94E-02
160.9,41.47,0,26.8,49.1,23.52,23.3,-7.57,30.4,0.876,2.96E-02
161.9,41.53,0,26.8,49.1,23.52,23.31,-7.57,30.4,0.876,2.98E-02
162.9,41.6,0,26.8,49.1,23.52,23.33,-7.57,30.4,0.877,3.00E-02
163.9,41.58,0,26.8,49.1,23.52,23.34,-7.57,30.4,0.877,3.02E-02
165,41.6,0,26.8,49.1,23.52,23.34,-7.57,30.4,0.878,3.04E-02
166,41.54,0,26.8,49.1,23.51,23.34,-7.57,30.4,0.878,3.06E-02
167,41.5,0,26.8,49.1,23.51,23.34,-7.57,30.5,0.879,3.08E-02
168,41.49,0,26.8,49.1,23.51,23.33,-7.57,30.5,0.879,3.10E-02
169,41.45,0,26.8,49.1,23.51,23.33,-7.57,30.5,0.88,3.12E-02
170,41.39,0,26.8,49.1,23.51,23.32,-7.57,30.5,0.88,3.14E-02
171,41.49,0,26.8,49.1,23.51,23.32,-7.57,30.5,0.881,3.16E-02
172.1,41.5,0,26.8,49.1,23.51,23.32,-7.57,30.5,0.881,3.18E-02
173.1,41.38,0,26.8,49.1,23.51,23.31,-7.57,30.5,0.881,3.20E-02
174.1,41.3,0,26.8,49.1,23.51,23.3,-7.57,30.5,0.882,3.22E-02
175.1,41.25,0,26.8,49.1,23.5,23.29,-7.57,30.5,0.882,3.24E-02
176.1,41.24,0,26.8,49.1,23.5,23.29,-7.57,30.5,0.883,3.26E-02
177.2,41.18,0,26.8,49.1,23.5,23.28,-7.57,30.5,0.883,3.28E-02
178.2,41.12,0,26.8,49.1,23.5,23.27,-7.57,30.5,0.884,3.30E-02
179.2,41.11,0,26.8,49.1,23.5,23.26,-7.57,30.5,0.884,3.32E-02
180.2,41.17,0,26.8,49.1,23.5,23.27,-7.57,30.5,0.885,3.34E-02
181.2,41.13,0,26.8,49.1,23.5,23.26,-7.57,30.5,0.885,3.36E-02
182.2,41.16,0,26.8,49.1,23.5,23.26,-7.57,30.5,0.885,3.38E-02
183.3,41.09,0,26.8,49.1,23.5,23.26,-7.57,30.5,0.886,3.40E-02
184.3,41.16,0,26.8,49,23.5,23.26,-7.57,30.5,0.886,3.42E-02
185.3,41.22,0,26.8,49,23.5,23.27,-7.57,30.5,0.887,3.44E-02
186.3,41.2,0,26.8,49,23.5,23.28,-7.57,30.5,0.887,3.46E-02
187.3,41.23,0,26.8,49,23.5,23.29,-7.57,30.5,0.888,3.48E-02
188.3,41.2,0,26.8,49,23.5,23.29,-7.57,30.5,0.888,3.50E-02
189.4,41.32,0,26.8,49,23.5,23.3,-7.57,30.5,0.889,3.52E-02
190.4,41.34,0,26.8,49,23.5,23.31,-7.57,30.5,0.889,3.54E-02
191.4,41.32,0,26.8,49,23.5,23.31,-7.57,30.5,0.889,3.56E-02
192.4,41.32,0,26.8,49,23.5,23.31,-7.57,30.5,0.89,3.58E-02
193.5,41.3,0,26.8,49,23.49,23.31,-7.57,30.5,0.89,3.60E-02
194.5,41.26,0,26.8,49,23.49,23.31,-7.57,30.5,0.891,3.62E-02
195.5,41.28,0,26.8,49,23.5,23.31,-7.57,30.5,0.891,3.64E-02
196.5,41.26,0,26.8,49,23.49,23.31,-7.57,30.5,0.892,3.66E-02
197.5,41.29,0,26.8,49,23.49,23.31,-7.57,30.5,0.892,3.68E-02
198.5,41.28,0,26.8,49,23.49,23.31,-7.57,30.5,0.893,3.70E-02
199.6,41.29,0,26.8,49,23.49,23.32,-7.57,30.5,0.893,3.73E-02
200.6,41.29,0,26.8,49,23.49,23.32,-7.57,30.5,0.894,3.75E-02
201.6,41.29,0,26.8,49,23.49,23.32,-7.57,30.5,0.894,3.77E-02
202.6,41.32,0,26.8,49,23.49,23.32,-7.57,30.5,0.894,3.79E-02
203.7,41.3,0,26.8,49,23.49,23.32,-7.57,30.5,0.895,3.81E-02
204.7,41.29,0,26.8,49,23.49,23.32,-7.57,30.5,0.895,3.83E-02
205.7,41.29,0,26.8,49,23.49,23.32,-7.57,30.5,0.896,3.85E-02
206.7,41.3,0,26.8,49,23.49,23.32,-7.57,30.5,0.896,3.87E-02
207.7,41.31,0,26.8,49,23.49,23.32,-7.57,30.5,0.897,3.89E-02
208.8,41.29,0,26.8,49,23.49,23.31,-7.57,30.5,0.897,3.91E-02
209.8,41.31,0,26.8,49,23.49,23.31,-7.57,30.5,0.898,3.93E-02
210.8,41.37,0,26.8,49,23.5,23.32,-7.57,30.5,0.898,3.95E-02
211.8,41.36,0,26.8,49,23.49,23.33,-7.57,30.5,0.899,3.97E-02
212.8,41.37,0,26.8,49,23.49,23.34,-7.57,30.5,0.899,3.99E-02
213.9,41.39,0,26.8,49,23.49,23.35,-7.57,30.6,0.899,4.01E-02
214.9,41.6,0,26.8,49,23.49,23.37,-7.57,30.6,0.9,4.03E-02
215.9,41.56,0,26.8,49,23.49,23.37,-7.57,30.6,0.9,4.05E-02
216.9,41.59,0,26.8,49,23.49,23.38,-7.57,30.6,0.901,4.07E-02
218,41.67,0,26.8,49,23.49,23.39,-7.57,30.6,0.901,4.09E-02
219,41.7,0,26.8,49,23.49,23.4,-7.57,30.6,0.902,4.11E-02
220,41.77,0,26.8,49,23.49,23.41,-7.57,30.6,0.902,4.13E-02
221,41.78,0,26.8,49,23.49,23.42,-7.57,30.6,0.903,4.15E-02
222,41.96,0,26.8,49,23.49,23.44,-7.57,30.6,0.903,4.17E-02
223.1,41.98,0,26.8,49,23.49,23.46,-7.57,30.6,0.904,4.19E-02
224.1,42,0,26.8,49,23.49,23.47,-7.57,30.6,0.904,4.21E-02
225.1,42.06,0,26.8,49,23.49,23.48,-7.57,30.6,0.904,4.24E-02
226.1,42.09,0,26.8,49,23.49,23.49,-7.57,30.6,0.905,4.26E-02
227.1,42.11,0,26.8,49,23.49,23.5,-7.57,30.6,0.905,4.28E-02
228.2,42.06,0,26.8,49,23.5,23.49,-7.57,30.6,0.906,4.30E-02
229.2,42.07,0,26.8,49,23.5,23.49,-7.57,30.6,0.906,4.32E-02
230.2,42.07,0,26.8,49,23.5,23.49,-7.57,30.6,0.907,4.34E-02
231.2,42.13,0,26.8,49,23.5,23.5,-7.57,30.6,0.907,4.36E-02
232.2,42.1,0,26.8,49,23.5,23.5,-7.56,30.6,0.908,4.38E-02
233.3,42.05,0,26.8,49,23.5,23.5,-7.57,30.6,0.908,4.40E-02
234.3,42.1,0,26.8,49,23.5,23.5,-7.57,30.6,0.909,4.42E-02
235.3,42.08,0,26.8,49,23.5,23.5,-7.56,30.6,0.909,4.44E-02
236.3,42.08,0,26.8,49,23.5,23.5,-7.57,30.6,0.909,4.46E-02
237.3,42.06,0,26.8,49,23.5,23.5,-7.57,30.6,0.91,4.48E-02
238.3,42.09,0,26.8,49,23.5,23.5,-7.57,30.6,0.91,4.50E-02
239.4,42.08,0,26.8,49,23.5,23.5,-7.57,30.6,0.911,4.52E-02
240.4,42.09,0,26.8,49,23.5,23.5,-7.57,30.6,0.911,4.54E-02
241.4,42.12,0,26.8,49,23.5,23.5,-7.57,30.6,0.912,4.57E-02
242.4,42.11,0,26.8,49,23.5,23.5,-7.57,30.6,0.912,4.59E-02
243.4,42.13,0,26.8,49,23.5,23.51,-7.57,30.6,0.913,4.61E-02
244.5,42.17,0,26.8,49,23.5,23.52,-7.57,30.6,0.913,4.63E-02
245.5,42.35,0,26.8,49,23.51,23.53,-7.57,30.6,0.914,4.65E-02
246.5,42.35,0,26.8,49,23.51,23.53,-7.57,30.6,0.914,4.67E-02
247.5,42.38,0,26.8,49,23.51,23.54,-7.57,30.6,0.915,4.69E-02
248.5,42.46,0,26.8,49,23.51,23.55,-7.57,30.6,0.915,4.71E-02
249.5,42.45,0,26.8,49,23.51,23.55,-7.57,30.6,0.915,4.73E-02
250.6,42.45,0,26.8,49,23.52,23.55,-7.57,30.6,0.916,4.75E-02
251.6,42.48,0,26.8,49,23.52,23.56,-7.57,30.6,0.916,4.77E-02
252.6,42.5,0,26.8,49,23.52,23.56,-7.57,30.6,0.917,4.79E-02
253.6,42.46,0,26.8,49,23.51,23.56,-7.57,30.6,0.917,4.81E-02
254.7,42.51,0,26.8,49,23.51,23.57,-7.57,30.6,0.918,4.84E-02
255.7,42.56,0,26.8,49,23.52,23.57,-7.57,30.6,0.918,4.86E-02
256.7,42.54,0,26.8,49,23.52,23.57,-7.57,30.6,0.919,4.88E-02
257.7,42.44,0,26.8,48.9,23.52,23.57,-7.57,30.6,0.919,4.90E-02
258.7,42.46,0,26.8,48.9,23.52,23.56,-7.57,30.6,0.92,4.92E-02
259.7,42.46,0,26.8,48.9,23.52,23.56,-7.57,30.6,0.92,4.94E-02
260.8,42.42,0,26.8,48.9,23.52,23.54,-7.57,30.6,0.921,4.96E-02
261.8,42.44,0,26.8,48.9,23.52,23.53,-7.57,30.6,0.921,4.98E-02
262.8,42.31,0,26.8,48.9,23.52,23.52,-7.57,30.6,0.921,5.00E-02
263.8,42.27,0,26.8,48.9,23.52,23.51,-7.57,30.6,0.922,5.02E-02
264.8,42.25,0,26.8,48.9,23.52,23.51,-7.57,30.7,0.922,5.04E-02
265.8,42.3,0,26.8,48.9,23.52,23.51,-7.57,30.7,0.923,5.06E-02
266.9,42.29,0,26.8,48.9,23.52,23.51,-7.57,30.7,0.923,5.08E-02
267.9,42.25,0,26.8,48.9,23.52,23.5,-7.57,30.7,0.924,5.10E-02
268.9,42.29,0,26.8,48.9,23.52,23.5,-7.57,30.7,0.924,5.13E-02
269.9,42.41,0,26.8,49,23.53,23.51,-7.57,30.7,0.925,5.15E-02
270.9,42.38,0,26.8,49,23.53,23.52,-7.57,30.7,0.925,5.17E-02
272,42.37,0,26.8,49,23.53,23.52,-7.57,30.7,0.926,5.19E-02
273,42.57,0,26.8,49,23.54,23.54,-7.57,30.7,0.926,5.21E-02
274,42.7,0,26.8,49,23.54,23.56,-7.57,30.7,0.927,5.23E-02
275,42.83,0,26.8,49,23.54,23.58,-7.57,30.7,0.927,5.25E-02
276,42.8,0,26.8,49,23.54,23.59,-7.57,30.7,0.927,5.27E-02
277.1,42.93,0,26.8,49,23.54,23.61,-7.57,30.7,0.928,5.29E-02
278.1,43.02,0,26.8,49,23.54,23.63,-7.57,30.7,0.928,5.31E-02
279.1,43.12,0,26.8,49,23.54,23.65,-7.57,30.7,0.929,5.34E-02
280.1,43.15,0,26.8,49,23.54,23.67,-7.57,30.7,0.929,5.36E-02
281.2,43.15,0,26.8,49,23.54,23.67,-7.57,30.7,0.93,5.38E-02
282.2,43.27,0,26.8,49,23.55,23.69,-7.57,30.7,0.93,5.40E-02
283.2,43.24,0,26.8,49,23.55,23.69,-7.57,30.7,0.931,5.42E-02
284.2,43.26,0,26.8,49,23.55,23.7,-7.57,30.7,0.931,5.44E-02
285.2,43.17,0,26.8,49,23.54,23.69,-7.57,30.7,0.932,5.46E-02
286.2,43.16,0,26.8,49,23.54,23.69,-7.57,30.7,0.932,5.48E-02
287.3,43.19,0,26.7,49,23.54,23.69,-7.57,30.7,0.933,5.50E-02
288.3,43.1,0,26.7,49,23.54,23.68,-7.57,30.7,0.933,5.53E-02
289.3,43.1,0,26.7,49,23.55,23.66,-7.57,30.7,0.934,5.55E-02
290.3,42.96,0,26.7,49,23.55,23.64,-7.57,30.7,0.934,5.57E-02
291.3,42.89,0,26.7,49,23.55,23.62,-7.57,30.7,0.935,5.59E-02
292.3,42.79,0,26.7,49,23.55,23.6,-7.57,30.7,0.935,5.61E-02
293.3,42.72,0,26.7,49,23.55,23.58,-7.57,30.7,0.935,5.63E-02
294.4,42.73,0,26.7,49,23.56,23.57,-7.57,30.7,0.936,5.65E-02
295.4,42.65,0,26.7,49,23.56,23.56,-7.57,30.7,0.936,5.67E-02
296.4,42.68,0,26.7,49,23.56,23.55,-7.57,30.7,0.937,5.69E-02
297.4,42.71,0,26.7,49,23.56,23.55,-7.57,30.7,0.937,5.71E-02
298.5,42.74,0,26.7,49,23.57,23.55,-7.57,30.7,0.938,5.74E-02
299.5,42.72,0,26.7,49,23.57,23.55,-7.57,30.7,0.938,5.76E-02
300.5,42.74,0,26.7,49,23.57,23.55,-7.57,30.7,0.939,5.78E-02
301.5,42.86,0,26.7,49,23.57,23.57,-7.57,30.7,0.939,5.80E-02
302.5,42.79,0,26.7,49,23.57,23.58,-7.57,30.7,0.94,5.82E-02
303.5,42.96,0,26.7,49,23.57,23.59,-7.57,30.7,0.94,5.84E-02
304.5,43.09,0,26.7,49,23.56,23.62,-7.57,30.7,0.941,5.86E-02
305.6,43.27,0,26.7,49,23.57,23.65,-7.57,30.7,0.941,5.88E-02
306.6,43.38,0,26.7,49,23.57,23.68,-7.57,30.7,0.942,5.90E-02
307.6,43.51,0,26.8,49,23.57,23.7,-7.57,30.8,0.942,5.92E-02
308.6,43.68,0,26.8,49,23.57,23.73,-7.57,30.8,0.942,5.95E-02
309.7,43.75,0,26.8,49,23.57,23.76,-7.57,30.8,0.943,5.97E-02
310.7,43.79,0,26.8,49,23.57,23.78,-7.57,30.8,0.943,5.99E-02
311.7,43.86,0,26.8,49,23.58,23.79,-7.57,30.8,0.944,6.01E-02
312.7,43.85,0,26.8,49,23.58,23.8,-7.57,30.8,0.944,6.03E-02
313.7,43.86,0,26.8,49,23.58,23.8,-7.57,30.8,0.945,6.05E-02
314.7,43.84,0,26.8,49,23.58,23.8,-7.57,30.8,0.945,6.08E-02
315.8,43.88,0,26.8,49,23.58,23.8,-7.57,30.8,0.946,6.10E-02
316.8,43.9,0,26.8,49,23.59,23.8,-7.57,30.8,0.946,6.12E-02
317.8,43.86,0,26.8,49,23.59,23.8,-7.57,30.8,0.947,6.14E-02
318.8,43.89,0,26.8,49,23.59,23.8,-7.57,30.8,0.947,6.16E-02
319.8,43.92,0,26.8,49,23.59,23.8,-7.57,30.8,0.948,6.18E-02
320.8,43.87,0,26.8,49,23.6,23.8,-7.57,30.8,0.948,6.20E-02
321.9,43.88,0,26.8,49,23.6,23.8,-7.57,30.8,0.949,6.23E-02
322.9,43.86,0,26.8,49,23.6,23.8,-7.57,30.8,0.949,6.25E-02
323.9,43.89,0,26.8,49,23.6,23.8,-7.57,30.8,0.95,6.27E-02
324.9,43.93,0,26.8,49,23.6,23.81,-7.57,30.8,0.95,6.29E-02
325.9,43.91,0,26.8,49,23.6,23.81,-7.57,30.8,0.951,6.31E-02
326.9,43.91,0,26.8,49,23.6,23.81,-7.57,30.8,0.951,6.33E-02
328,43.95,0,26.8,49,23.6,23.81,-7.57,30.8,0.952,6.35E-02
329,44.14,0,26.8,49,23.61,23.82,-7.57,30.8,0.952,6.38E-02
330,44.18,0,26.8,49,23.61,23.83,-7.57,30.8,0.952,6.40E-02
331,44.19,0,26.8,49,23.61,23.83,-7.57,30.8,0.953,6.42E-02
