Time [sec],Flux [g/(m2h)],Mark,AmbT [C],AmbRH [%],ProbeT [C],ProbeRH [%],CondenserT [C],HeatsinkT [C],Ice [mg],Qty [g/m2]
0,65.38,0,25.8,48.3,24.36,27.71,-7.57,30.8,1.298,3.19E-04
1,64.88,0,25.8,48.3,24.36,27.63,-7.57,30.8,1.298,6.36E-04
2,64.01,0,25.8,48.3,24.36,27.49,-7.57,30.8,1.299,9.54E-04
3.1,62.92,0,25.8,48.3,24.36,27.3,-7.57,30.8,1.3,1.26E-03
4.1,61.6,0,25.8,48.4,24.36,27.05,-7.57,30.8,1.3,1.56E-03
5.1,60.11,0,25.8,48.4,24.36,26.76,-7.57,30.8,1.301,1.86E-03
6.1,58.65,0,25.8,48.4,24.36,26.44,-7.57,30.8,1.302,2.14E-03
7.1,57.16,0,25.8,48.4,24.36,26.11,-7.57,30.8,1.302,2.43E-03
8.2,55.95,0,25.8,48.4,24.36,25.81,-7.57,30.8,1.303,2.70E-03
9.2,54.81,0,25.8,48.4,24.36,25.54,-7.57,30.8,1.303,2.97E-03
10.2,53.76,0,25.8,48.4,24.36,25.28,-7.57,30.8,1.304,3.23E-03
11.2,52.93,0,25.8,48.4,24.36,25.05,-7.57,30.8,1.305,3.49E-03
12.2,52.15,0,25.8,48.4,24.37,24.85,-7.57,30.8,1.305,3.75E-03
13.3,51.45,0,25.8,48.4,24.37,24.67,-7.57,30.8,1.306,4.00E-03
14.3,50.74,0,25.8,48.4,24.37,24.49,-7.57,30.8,1.306,4.25E-03
15.3,50.08,0,25.8,48.4,24.37,24.33,-7.57,30.8,1.307,4.49E-03
16.3,49.53,0,25.7,48.4,24.37,24.19,-7.57,30.8,1.307,4.74E-03
17.3,48.97,0,25.7,48.4,24.37,24.05,-7.57,30.8,1.308,4.98E-03
18.3,48.4,0,25.7,48.4,24.37,23.92,-7.57,30.8,1.308,5.21E-03
19.4,47.84,0,25.7,48.4,24.37,23.79,-7.57,30.8,1.309,5.45E-03
20.4,47.38,0,25.7,48.4,24.37,23.67,-7.57,30.8,1.31,5.68E-03
21.4,47,0,25.7,48.4,24.37,23.57,-7.57,30.8,1.31,5.91E-03
22.4,46.57,0,25.7,48.4,24.37,23.47,-7.57,30.8,1.311,6.14E-03
23.4,46.14,0,25.7,48.4,24.37,23.37,-7.57,30.8,1.311,6.36E-03
24.5,45.81,0,25.7,48.4,24.37,23.29,-7.57,30.8,1.312,6.59E-03
25.5,45.56,0,25.8,48.4,24.38,23.21,-7.57,30.8,1.312,6.81E-03
26.5,45.25,0,25.8,48.4,24.38,23.14,-7.57,30.8,1.313,7.04E-03
27.5,44.94,0,25.8,48.4,24.38,23.07,-7.57,30.8,1.313,7.26E-03
28.6,44.71,0,25.8,48.4,24.38,23.01,-7.57,30.8,1.314,7.48E-03
29.6,44.52,0,25.8,48.4,24.38,22.95,-7.57,30.8,1.314,7.70E-03
30.6,44.28,0,25.8,48.4,24.38,22.9,-7.57,30.8,1.314,7.91E-03
31.6,44,0,25.8,48.4,24.38,22.84,-7.57,30.8,1.315,8.13E-03
32.6,43.84,0,25.8,48.4,24.38,22.79,-7.57,30.8,1.315,8.34E-03
33.6,43.67,0,25.8,48.4,24.38,22.74,-7.57,30.8,1.316,8.56E-03
34.7,43.41,0,25.8,48.4,24.38,22.69,-7.57,30.8,1.316,8.77E-03
35.7,43.12,0,25.8,48.4,24.38,22.64,-7.57,30.8,1.317,8.98E-03
36.7,42.82,0,25.8,48.4,24.38,22.57,-7.57,30.8,1.317,9.19E-03
37.7,42.52,0,25.8,48.3,24.38,22.51,-7.57,30.8,1.318,9.40E-03
38.7,42.18,0,25.8,48.3,24.38,22.44,-7.57,30.8,1.318,9.60E-03
39.7,41.82,0,25.8,48.3,24.38,22.36,-7.57,30.8,1.319,9.81E-03
40.8,41.51,0,25.8,48.3,24.38,22.28,-7.57,30.8,1.319,1.00E-02
41.8,41.18,0,25.8,48.3,24.38,22.21,-7.57,30.8,1.32,1.02E-02
42.8,40.94,0,25.8,48.3,24.38,22.14,-7.57,30.8,1.32,1.04E-02
43.8,40.75,0,25.8,48.3,24.39,22.09,-7.57,30.8,1.32,1.06E-02
44.8,40.52,0,25.8,48.3,24.38,22.04,-7.57,30.8,1.321,1.08E-02
45.8,40.33,0,25.8,48.3,24.38,21.99,-7.57,30.8,1.321,1.10E-02
46.9,40.16,0,25.8,48.3,24.38,21.95,-7.57,30.8,1.322,1.12E-02
47.9,40.04,0,25.8,48.3,24.38,21.91,-7.57,30.8,1.322,1.14E-02
48.9,39.84,0,25.8,48.3,24.38,21.87,-7.57,30.8,1.323,1.16E-02
49.9,39.66,0,25.8,48.3,24.38,21.83,-7.57,30.8,1.323,1.18E-02
51,39.54,0,25.8,48.3,24.38,21.8,-7.57,30.8,1.324,1.20E-02
52,39.39,0,25.8,48.3,24.38,21.76,-7.57,30.8,1.324,1.22E-02
53,39.29,0,25.8,48.2,24.39,21.73,-7.57,30.8,1.324,1.24E-02
54,39.24,0,25.9,48.2,24.39,21.71,-7.57,30.8,1.325,1.26E-02
55,39.31,0,25.9,48.2,24.39,21.71,-7.57,30.8,1.325,1.28E-02
56.1,39.34,0,25.9,48.2,24.39,21.71,-7.57,30.8,1.326,1.30E-02
57.1,39.33,0,25.9,48.2,24.39,21.71,-7.57,30.8,1.326,1.31E-02
58.1,39.42,0,25.9,48.2,24.39,21.72,-7.57,30.8,1.327,1.33E-02
59.1,39.47,0,25.9,48.2,24.39,21.73,-7.57,30.8,1.327,1.35E-02
60.1,39.6,0,25.9,48.2,24.39,21.75,-7.57,30.8,1.327,1.37E-02
61.2,39.67,0,25.9,48.2,24.39,21.77,-7.57,30.8,1.328,1.39E-02
62.2,39.77,0,25.9,48.2,24.39,21.79,-7.57,30.8,1.328,1.41E-02
63.2,39.86,0,25.9,48.2,24.39,21.81,-7.57,30.8,1.329,1.43E-02
64.2,39.95,0,25.9,48.2,24.39,21.83,-7.57,30.8,1.329,1.45E-02
65.2,40.1,0,25.9,48.2,24.39,21.85,-7.57,30.8,1.33,1.47E-02
66.3,40.18,0,25.9,48.1,24.39,21.87,-7.57,30.8,1.33,1.49E-02
67.3,40.17,0,25.9,48.1,24.39,21.88,-7.57,30.8,1.33,1.51E-02
68.3,40.19,0,25.9,48.1,24.39,21.89,-7.57,30.8,1.331,1.53E-02
69.3,40.29,0,25.9,48.1,24.39,21.91,-7.57,30.8,1.331,1.55E-02
70.3,40.32,0,25.9,48.1,24.39,21.92,-7.57,30.8,1.332,1.57E-02
71.3,40.34,0,25.9,48.1,24.39,21.93,-7.57,30.8,1.332,1.59E-02
72.4,40.4,0,25.9,48.1,24.39,21.94,-7.57,30.8,1.333,1.61E-02
73.4,40.6,0,25.9,48.1,24.39,21.96,-7.57,30.8,1.333,1.63E-02
74.4,40.79,0,25.9,48.1,24.39,22,-7.57,30.8,1.334,1.65E-02
75.4,41.03,0,25.9,48.1,24.39,22.05,-7.57,30.8,1.334,1.67E-02
76.4,41.41,0,25.9,48.1,24.39,22.11,-7.57,30.8,1.334,1.69E-02
77.5,41.81,0,25.9,48.1,24.39,22.19,-7.57,30.8,1.335,1.71E-02
78.5,42.23,0,26,48.1,24.39,22.27,-7.57,30.8,1.335,1.73E-02
79.5,42.59,0,26,48.1,24.39,22.36,-7.57,30.8,1.336,1.75E-02
80.5,43.05,0,26,48.1,24.39,22.45,-7.57,30.8,1.336,1.77E-02
81.6,43.42,0,26,48.1,24.39,22.54,-7.57,30.9,1.337,1.79E-02
82.6,43.72,0,26,48.1,24.4,22.62,-7.57,30.9,1.337,1.82E-02
83.6,44,0,26,48.1,24.4,22.69,-7.57,30.9,1.338,1.84E-02
84.6,44.27,0,26,48.1,24.4,22.75,-7.57,30.9,1.338,1.86E-02
85.6,44.49,0,26,48.1,24.4,22.81,-7.57,30.9,1.339,1.88E-02
86.7,44.68,0,26,48.1,24.4,22.86,-7.57,30.9,1.339,1.90E-02
87.7,44.81,0,26,48.1,24.4,22.9,-7.57,30.9,1.34,1.92E-02
88.7,44.9,0,26,48.1,24.4,22.93,-7.57,30.9,1.34,1.95E-02
89.7,45.04,0,26,48.1,24.4,22.96,-7.57,30.9,1.341,1.97E-02
90.7,45.08,0,26,48.1,24.4,22.98,-7.57,30.9,1.341,1.99E-02
91.7,45.24,0,26.1,48.1,24.4,23.01,-7.57,30.9,1.342,2.01E-02
92.8,45.27,0,26.1,48.1,24.4,23.02,-7.57,30.9,1.342,2.03E-02
93.8,45.39,0,26.1,48,24.4,23.04,-7.57,30.9,1.343,2.06E-02
94.8,45.49,0,26.1,48,24.4,23.06,-7.57,30.9,1.343,2.08E-02
95.8,45.5,0,26.1,48,24.41,23.07,-7.57,30.9,1.344,2.10E-02
96.8,45.54,0,26.1,48,24.41,23.08,-7.57,30.9,1.344,2.12E-02
97.8,45.49,0,26.1,48,24.41,23.08,-7.57,30.9,1.345,2.15E-02
98.9,45.47,0,26.1,48,24.4,23.08,-7.57,30.9,1.345,2.17E-02
99.9,45.39,0,26.1,48,24.4,23.07,-7.57,30.9,1.346,2.19E-02
100.9,45.3,0,26.1,48,24.4,23.06,-7.57,30.9,1.346,2.21E-02
101.9,45.26,0,26.1,48,24.41,23.04,-7.57,30.9,1.347,2.23E-02
102.9,45.2,0,26.1,47.9,24.41,23.03,-7.57,30.9,1.347,2.26E-02
104,45.16,0,26.1,47.9,24.41,23.02,-7.57,30.9,1.348,2.28E-02
105,45.05,0,26.1,47.9,24.41,23,-7.57,30.9,1.348,2.30E-02
106,44.99,0,26.1,47.9,24.41,22.98,-7.57,30.9,1.349,2.32E-02
107,44.93,0,26.1,47.9,24.41,22.97,-7.57,30.9,1.349,2.35E-02
108,44.84,0,26.1,47.9,24.41,22.95,-7.57,30.9,1.349,2.37E-02
109,44.74,0,26.1,47.9,24.41,22.93,-7.57,30.9,1.35,2.39E-02
110.1,44.6,0,26.1,47.9,24.41,22.91,-7.57,30.9,1.35,2.41E-02
111.1,44.56,0,26.1,47.9,24.41,22.89,-7.57,30.9,1.351,2.43E-02
112.1,44.48,0,26.1,47.9,24.41,22.86,-7.57,30.9,1.351,2.45E-02
113.1,44.4,0,26.1,47.8,24.41,22.84,-7.57,30.9,1.352,2.48E-02
114.1,44.25,0,26.1,47.8,24.41,22.82,-7.57,30.9,1.352,2.50E-02
115.2,44.16,0,26.1,47.8,24.41,22.79,-7.57,30.9,1.353,2.52E-02
116.2,44.06,0,26.1,47.8,24.42,22.77,-7.57,30.9,1.353,2.54E-02
117.2,43.96,0,26.1,47.8,24.41,22.75,-7.57,30.9,1.354,2.56E-02
118.2,43.93,0,26.1,47.8,24.41,22.73,-7.57,30.9,1.354,2.58E-02
119.2,43.91,0,26.1,47.8,24.41,22.72,-7.57,30.9,1.355,2.61E-02
120.3,43.86,0,26.1,47.7,24.41,22.71,-7.57,30.9,1.355,2.63E-02
121.3,43.77,0,26.1,47.7,24.41,22.7,-7.57,30.9,1.356,2.65E-02
122.3,43.73,0,26.1,47.7,24.41,22.69,-7.57,30.9,1.356,2.67E-02
123.3,43.65,0,26.1,47.7,24.41,22.67,-7.57,30.9,1.357,2.69E-02
124.3,43.5,0,26.1,47.7,24.41,22.65,-7.57,30.9,1.357,2.71E-02
125.4,43.36,0,26.1,47.7,24.41,22.62,-7.57,30.9,1.358,2.73E-02
126.4,43.33,0,26.1,47.7,24.41,22.6,-7.57,30.9,1.358,2.76E-02
127.4,43.3,0,26.1,47.7,24.41,22.59,-7.57,30.9,1.359,2.78E-02
128.4,43.24,0,26.1,47.7,24.41,22.57,-7.57,30.9,1.359,2.80E-02
129.4,43.21,0,26.1,47.7,24.41,22.56,-7.57,30.9,1.36,2.82E-02
130.4,43.14,0,26,47.7,24.41,22.55,-7.57,30.9,1.36,2.84E-02
131.5,43.17,0,26,47.7,24.41,22.55,-7.57,30.9,1.36,2.86E-02
132.5,43.02,0,26,47.7,24.41,22.53,-7.57,30.9,1.361,2.88E-02
133.5,42.99,0,26,47.7,24.41,22.52,-7.57,30.9,1.361,2.90E-02
134.5,42.87,0,26,47.7,24.41,22.5,-7.57,30.9,1.362,2.92E-02
135.5,42.75,0,26,47.7,24.41,22.47,-7.57,30.9,1.362,2.95E-02
136.5,42.68,0,26,47.7,24.41,22.45,-7.57,30.9,1.363,2.97E-02
137.6,42.43,0,26,47.7,24.41,22.42,-7.57,30.9,1.363,2.99E-02
138.6,42.39,0,26,47.8,24.41,22.39,-7.57,30.9,1.364,3.01E-02
139.6,42.16,0,25.9,47.8,24.41,22.36,-7.57,30.9,1.364,3.03E-02
140.6,42.13,0,25.9,47.8,24.41,22.34,-7.57,30.9,1.365,3.05E-02
141.6,42.05,0,25.9,47.8,24.41,22.32,-7.57,30.9,1.365,3.07E-02
142.7,42.01,0,25.9,47.8,24.41,22.3,-7.57,30.9,1.366,3.09E-02
143.7,41.99,0,25.9,47.8,24.41,22.29,-7.57,30.9,1.366,3.11E-02
144.7,41.94,0,25.9,47.8,24.41,22.28,-7.57,30.9,1.366,3.13E-02
145.7,41.94,0,25.9,47.9,24.41,22.27,-7.57,30.9,1.367,3.15E-02
146.7,41.87,0,25.9,47.9,24.41,22.26,-7.57,30.9,1.367,3.17E-02
147.7,41.85,0,25.9,47.9,24.41,22.26,-7.57,30.9,1.368,3.19E-02
148.8,41.73,0,25.9,47.9,24.41,22.24,-7.57,30.9,1.368,3.21E-02
149.8,41.65,0,25.9,47.9,24.41,22.22,-7.57,30.9,1.369,3.23E-02
150.8,41.5,0,25.9,47.9,24.41,22.19,-7.57,30.9,1.369,3.25E-02
151.8,41.44,0,25.9,48,24.41,22.17,-7.57,30.9,1.37,3.27E-02
152.8,41.28,0,25.9,48,24.41,22.14,-7.57,30.9,1.37,3.29E-02
153.9,41.11,0,25.8,48,24.42,22.11,-7.57,30.9,1.371,3.31E-02
154.9,40.94,0,25.8,48,24.42,22.07,-7.57,30.9,1.371,3.33E-02
155.9,40.78,0,25.8,48,24.42,22.04,-7.57,30.9,1.371,3.35E-02
156.9,40.67,0,25.8,48,24.42,22.01,-7.57,30.9,1.372,3.37E-02
157.9,40.51,0,25.8,48,24.42,21.97,-7.57,30.9,1.372,3.39E-02
158.9,40.37,0,25.8,48,24.42,21.94,-7.57,30.9,1.373,3.41E-02
160,40.2,0,25.8,48,24.42,21.9,-7.57,30.9,1.373,3.43E-02
161,40.13,0,25.8,48,24.42,21.88,-7.57,30.9,1.374,3.45E-02
162,40,0,25.8,48.1,24.41,21.85,-7.57,30.9,1.374,3.47E-02
163,39.94,0,25.8,48.1,24.41,21.83,-7.57,30.9,1.375,3.49E-02
164.1,39.85,0,25.8,48.1,24.41,21.81,-7.57,30.9,1.375,3.51E-02
165.1,39.81,0,25.8,48.1,24.41,21.8,-7.57,30.9,1.375,3.53E-02
166.1,39.83,0,25.8,48.1,24.41,21.79,-7.57,30.9,1.376,3.55E-02
167.1,39.83,0,25.8,48.1,24.42,21.79,-7.57,30.9,1.376,3.57E-02
168.1,39.88,0,25.8,48.1,24.42,21.79,-7.57,30.9,1.377,3.59E-02
169.2,39.88,0,25.8,48.1,24.42,21.79,-7.57,30.9,1.377,3.61E-02
170.2,39.87,0,25.8,48.1,24.42,21.79,-7.57,30.9,1.378,3.63E-02
171.2,39.88,0,25.8,48.1,24.42,21.79,-7.57,30.9,1.378,3.65E-02
172.2,39.89,0,25.8,48.1,24.43,21.79,-7.57,30.9,1.378,3.67E-02
173.2,39.89,0,25.8,48.1,24.42,21.79,-7.57,30.9,1.379,3.69E-02
174.2,39.87,0,25.8,48.1,24.42,21.79,-7.57,30.9,1.379,3.71E-02
175.3,39.82,0,25.9,48.1,24.42,21.78,-7.57,30.9,1.38,3.73E-02
176.3,39.86,0,25.9,48.1,24.42,21.78,-7.57,30.9,1.38,3.75E-02
177.3,39.82,0,25.9,48.1,24.42,21.77,-7.57,30.9,1.381,3.77E-02
178.3,39.83,0,25.9,48.1,24.42,21.76,-7.57,30.9,1.381,3.79E-02
179.3,39.68,0,25.9,48.1,24.42,21.75,-7.57,30.9,1.381,3.81E-02
180.4,39.64,0,25.9,48.1,24.43,21.74,-7.57,30.9,1.382,3.82E-02
181.4,39.7,0,25.9,48.1,24.43,21.74,-7.57,30.9,1.382,3.84E-02
182.4,39.68,0,25.9,48.1,24.43,21.74,-7.57,30.9,1.383,3.86E-02
183.4,39.7,0,25.9,48.1,24.43,21.74,-7.57,30.9,1.383,3.88E-02
184.4,39.72,0,25.9,48.1,24.43,21.74,-7.57,30.9,1.384,3.90E-02
185.4,39.7,0,25.9,48.1,24.43,21.73,-7.57,30.9,1.384,3.92E-02
186.5,39.75,0,25.9,48.1,24.43,21.74,-7.57,30.9,1.384,3.94E-02
187.5,39.71,0,25.9,48.1,24.43,21.74,-7.57,30.9,1.385,3.96E-02
188.5,39.75,0,25.9,48.1,24.43,21.74,-7.57,30.9,1.385,3.98E-02
189.5,39.77,0,25.9,48.1,24.43,21.75,-7.57,30.9,1.386,4.00E-02
190.5,39.9,0,25.9,48,24.43,21.77,-7.57,30.9,1.386,4.02E-02
191.5,39.92,0,25.9,48,24.43,21.78,-7.57,30.9,1.387,4.04E-02
192.5,39.93,0,25.9,48,24.43,21.78,-7.57,30.9,1.387,4.06E-02
193.6,39.97,0,25.9,48,24.44,21.79,-7.57,30.9,1.388,4.08E-02
194.6,39.98,0,25.9,48,24.44,21.79,-7.57,30.9,1.388,4.10E-02
195.6,39.96,0,25.9,48,24.44,21.79,-7.57,30.9,1.388,4.12E-02
196.6,39.93,0,25.9,48,24.44,21.79,-7.57,30.9,1.389,4.14E-02
197.6,40.01,0,25.9,48,24.44,21.79,-7.57,30.9,1.389,4.16E-02
198.6,40.02,0,26,48,24.44,21.8,-7.57,30.9,1.39,4.18E-02
199.7,39.92,0,26,48,24.44,21.8,-7.57,30.9,1.39,4.20E-02
200.7,39.91,0,26,48,24.44,21.79,-7.57,30.9,1.391,4.21E-02
201.7,39.92,0,26,48,24.44,21.79,-7.57,30.9,1.391,4.23E-02
202.8,39.89,0,26,48,24.44,21.78,-7.57,30.9,1.391,4.25E-02
203.8,39.86,0,26,48,24.44,21.76,-7.57,30.9,1.392,4.27E-02
204.8,39.7,0,26,48,24.44,21.74,-7.57,30.9,1.392,4.29E-02
205.8,39.66,0,26,48,24.45,21.73,-7.57,30.9,1.393,4.31E-02
206.8,39.58,0,26,48,24.45,21.71,-7.57,30.9,1.393,4.33E-02
207.9,39.51,0,26,48,24.45,21.69,-7.57,30.9,1.394,4.35E-02
208.9,39.51,0,26,48,24.45,21.68,-7.57,30.9,1.394,4.37E-02
209.9,39.45,0,26,48,24.45,21.66,-7.57,30.9,1.394,4.39E-02
210.9,39.36,0,26,48,24.45,21.65,-7.57,30.9,1.395,4.41E-02
212,39.31,0,26,48,24.46,21.63,-7.57,30.9,1.395,4.43E-02
213,39.22,0,26,48,24.45,21.62,-7.57,30.9,1.396,4.45E-02
214,39.12,0,26,48,24.45,21.6,-7.57,30.9,1.396,4.47E-02
215,38.94,0,26,48,24.45,21.57,-7.57,30.9,1.397,4.49E-02
216,38.8,0,26,48,24.45,21.54,-7.57,30.9,1.397,4.51E-02
217,38.64,0,26.1,48,24.46,21.5,-7.57,30.9,1.397,4.52E-02
218,38.45,0,26.1,48,24.46,21.46,-7.57,30.9,1.398,4.54E-02
219.1,38.34,0,26.1,48,24.46,21.43,-7.57,30.9,1.398,4.56E-02
220.1,38.16,0,26.1,48,24.46,21.38,-7.57,30.9,1.399,4.58E-02
221.1,38.08,0,26.1,48,24.47,21.35,-7.57,30.9,1.399,4.60E-02
222.1,38,0,26.1,48,24.47,21.33,-7.57,30.9,1.4,4.62E-02
223.1,37.98,0,26.1,48,24.47,21.31,-7.57,30.9,1.4,4.64E-02
224.2,37.95,0,26.1,47.9,24.47,21.3,-7.57,30.9,1.4,4.66E-02
225.2,37.95,0,26.1,47.9,24.47,21.3,-7.57,30.9,1.401,4.67E-02
226.2,38.06,0,26.1,47.9,24.47,21.31,-7.57,30.9,1.401,4.69E-02
227.2,38.11,0,26.1,47.9,24.47,21.32,-7.57,30.9,1.402,4.71E-02
228.2,38.2,0,26.1,47.9,24.47,21.33,-7.57,30.9,1.402,4.73E-02
229.2,38.31,0,26.1,47.9,24.47,21.35,-7.57,30.9,1.402,4.75E-02
230.3,38.4,0,26.1,47.9,24.47,21.37,-7.57,30.9,1.403,4.77E-02
231.3,38.54,0,26.1,47.9,24.47,21.4,-7.57,30.9,1.403,4.79E-02
232.3,38.6,0,26.1,47.9,24.47,21.42,-7.57,30.9,1.404,4.80E-02
233.3,38.76,0,26.1,47.9,24.47,21.45,-7.57,30.9,1.404,4.82E-02
234.3,38.88,0,26.1,47.9,24.48,21.47,-7.57,30.9,1.405,4.84E-02
235.4,39.05,0,26.1,47.9,24.48,21.5,-7.57,30.9,1.405,4.86E-02
236.4,39.19,0,26.1,47.9,24.48,21.53,-7.57,30.9,1.405,4.88E-02
237.4,39.25,0,26.1,47.9,24.48,21.55,-7.57,30.9,1.406,4.90E-02
238.4,39.39,0,26.1,47.9,24.48,21.58,-7.57,30.9,1.406,4.92E-02
239.4,39.49,0,26.1,47.9,24.48,21.6,-7.57,30.9,1.407,4.94E-02
240.5,39.56,0,26.1,47.8,24.48,21.62,-7.57,30.9,1.407,4.96E-02
241.5,39.61,0,26.1,47.8,24.48,21.64,-7.57,30.9,1.408,4.98E-02
242.5,39.81,0,26.1,47.8,24.48,21.67,-7.57,30.9,1.408,5.00E-02
243.5,40.01,0,26.1,47.8,24.48,21.71,-7.57,30.9,1.408,5.02E-02
244.5,40.18,0,26.1,47.8,24.49,21.74,-7.57,30.9,1.409,5.04E-02
245.6,40.37,0,26.1,47.8,24.49,21.78,-7.57,30.9,1.409,5.06E-02
246.6,40.6,0,26.1,47.8,24.49,21.83,-7.57,30.9,1.41,5.08E-02
247.6,40.8,0,26.1,47.8,24.49,21.87,-7.57,30.9,1.41,5.10E-02
248.6,40.87,0,26.1,47.8,24.49,21.9,-7.57,30.9,1.411,5.12E-02
249.6,41.01,0,26.1,47.8,24.49,21.93,-7.57,30.9,1.411,5.14E-02
250.7,41.1,0,26.1,47.9,24.49,21.96,-7.57,30.9,1.411,5.16E-02
251.7,41.09,0,26.1,47.9,24.49,21.97,-7.57,30.9,1.412,5.18E-02
252.7,41.12,0,26.1,47.9,24.49,21.97,-7.57,30.9,1.412,5.20E-02
253.7,41.12,0,26.1,47.9,24.5,21.97,-7.57,30.9,1.413,5.22E-02
254.7,41.12,0,26.1,47.9,24.5,21.97,-7.57,30.9,1.413,5.24E-02
255.7,41.07,0,26.1,47.9,24.5,21.97,-7.57,30.9,1.414,5.26E-02
256.8,41.06,0,26.1,47.9,24.5,21.96,-7.57,30.9,1.414,5.28E-02
257.8,41.12,0,26.1,47.9,24.5,21.97,-7.57,30.9,1.415,5.30E-02
258.8,41.1,0,26.1,47.9,24.5,21.97,-7.57,30.9,1.415,5.32E-02
259.8,41.06,0,26.1,47.9,24.5,21.97,-7.57,30.9,1.416,5.34E-02
260.8,41.07,0,26.1,47.9,24.5,21.97,-7.57,30.9,1.416,5.36E-02
261.8,41.08,0,26.1,47.9,24.5,21.97,-7.57,30.9,1.416,5.38E-02
262.8,41.07,0,26.1,47.9,24.5,21.97,-7.57,30.9,1.417,5.40E-02
263.9,41.1,0,26.1,48,24.51,21.97,-7.57,30.9,1.417,5.42E-02
264.9,41.06,0,26.1,48,24.51,21.96,-7.57,30.9,1.418,5.44E-02
265.9,41.04,0,26.1,48,24.51,21.95,-7.57,30.9,1.418,5.46E-02
266.9,41.04,0,26.1,48,24.51,21.94,-7.57,30.9,1.419,5.48E-02
267.9,41.03,0,26.1,48,24.51,21.93,-7.57,30.9,1.419,5.50E-02
269,40.91,0,26.1,48,24.51,21.92,-7.57,30.9,1.42,5.52E-02
270,40.82,0,26.1,48,24.51,21.91,-7.57,30.9,1.42,5.54E-02
271,40.79,0,26.1,48,24.51,21.89,-7.57,30.9,1.42,5.56E-02
272,40.75,0,26.1,48,24.51,21.88,-7.57,30.9,1.421,5.58E-02
273,40.7,0,26.1,48.1,24.51,21.87,-7.57,30.9,1.421,5.60E-02
274,40.63,0,26.1,48.1,24.51,21.86,-7.57,30.9,1.422,5.62E-02
275.1,40.54,0,26.1,48.1,24.52,21.84,-7.57,30.9,1.422,5.64E-02
276.1,40.43,0,26.1,48.1,24.52,21.82,-7.57,30.9,1.423,5.66E-02
277.1,40.41,0,26.1,48.1,24.52,21.81,-7.57,30.9,1.423,5.68E-02
278.1,40.38,0,26.1,48.1,24.52,21.8,-7.57,30.9,1.424,5.70E-02
279.1,40.4,0,26.1,48.1,24.52,21.79,-7.57,30.9,1.424,5.72E-02
280.2,40.36,0,26.1,48.1,24.52,21.79,-7.57,30.9,1.424,5.74E-02
281.2,40.43,0,26.1,48.1,24.52,21.79,-7.57,30.9,1.425,5.76E-02
282.2,40.55,0,26.1,48.1,24.52,21.81,-7.57,30.9,1.425,5.78E-02
283.2,40.64,0,26.1,48.1,24.52,21.82,-7.57,30.9,1.426,5.80E-02
284.3,40.76,0,26.1,48.1,24.52,21.84,-7.57,30.9,1.426,5.82E-02
285.3,40.88,0,26.1,48.1,24.52,21.87,-7.57,30.9,1.427,5.84E-02
286.3,41.22,0,26.1,48.1,24.53,21.91,-7.57,30.9,1.427,5.86E-02
287.3,41.46,0,26.1,48.1,24.53,21.96,-7.57,30.9,1.428,5.88E-02
288.3,41.74,0,26.1,48.1,24.53,22.02,-7.57,30.9,1.428,5.90E-02
289.3,42.09,0,26.1,48.1,24.53,22.09,-7.57,30.9,1.428,5.92E-02
290.3,42.42,0,26.1,48.1,24.53,22.16,-7.57,30.9,1.429,5.94E-02
291.4,42.85,0,26.2,48.2,24.53,22.24,-7.57,30.9,1.429,5.96E-02
292.4,43.11,0,26.2,48.2,24.53,22.31,-7.57,30.9,1.43,5.98E-02
293.4,43.44,0,26.2,48.2,24.53,22.38,-7.57,30.9,1.43,6.00E-02
294.4,43.68,0,26.1,48.2,24.54,22.44,-7.57,30.9,1.431,6.02E-02
295.5,43.9,0,26.1,48.2,24.54,22.5,-7.57,30.9,1.431,6.05E-02
296.5,44.14,0,26.1,48.2,24.54,22.55,-7.57,30.9,1.432,6.07E-02
297.5,44.23,0,26.1,48.2,24.54,22.59,-7.57,30.9,1.432,6.09E-02
298.5,44.38,0,26.1,48.2,24.54,22.62,-7.57,30.9,1.433,6.11E-02
299.5,44.44,0,26.1,48.2,24.54,22.65,-7.57,30.9,1.433,6.13E-02
300.5,44.57,0,26.1,48.2,24.54,22.67,-7.57,30.9,1.434,6.15E-02
301.6,44.59,0,26.1,48.2,24.54,22.69,-7.57,30.9,1.434,6.18E-02
302.6,44.64,0,26.1,48.2,24.54,22.7,-7.57,30.9,1.435,6.20E-02
303.6,44.72,0,26.1,48.2,24.54,22.72,-7.57,30.9,1.435,6.22E-02
304.6,44.76,0,26.1,48.2,24.54,22.73,-7.57,30.9,1.436,6.24E-02
305.6,44.86,0,26.1,48.2,24.55,22.74,-7.57,30.9,1.436,6.26E-02
306.6,44.83,0,26.1,48.2,24.55,22.75,-7.57,30.9,1.437,6.29E-02
307.7,44.92,0,26.1,48.2,24.55,22.76,-7.57,30.9,1.437,6.31E-02
308.7,44.95,0,26.1,48.2,24.55,22.76,-7.57,30.9,1.438,6.33E-02
309.7,44.9,0,26.1,48.2,24.55,22.76,-7.57,30.9,1.438,6.35E-02
310.7,44.9,0,26.1,48.2,24.55,22.76,-7.57,30.9,1.439,6.37E-02
311.7,44.81,0,26.1,48.2,24.55,22.75,-7.57,30.9,1.439,6.40E-02
312.8,44.83,0,26.1,48.2,24.55,22.75,-7.57,30.9,1.44,6.42E-02
313.8,44.8,0,26.1,48.3,24.55,22.74,-7.57,30.9,1.44,6.44E-02
314.8,44.81,0,26.1,48.3,24.55,22.74,-7.57,30.9,1.44,6.46E-02
315.8,44.81,0,26.1,48.3,24.55,22.73,-7.57,30.9,1.441,6.48E-02
316.8,44.81,0,26.1,48.3,24.55,22.73,-7.57,30.9,1.441,6.51E-02
317.8,44.8,0,26.1,48.3,24.55,22.72,-7.57,30.9,1.442,6.53E-02
318.8,44.72,0,26.1,48.3,24.56,22.72,-7.57,30.9,1.442,6.55E-02
319.9,44.68,0,26.1,48.3,24.56,22.71,-7.57,30.9,1.443,6.57E-02
320.9,44.57,0,26.1,48.3,24.56,22.69,-7.57,30.9,1.443,6.59E-02
321.9,44.52,0,26.1,48.3,24.56,22.68,-7.57,30.9,1.444,6.61E-02
322.9,44.47,0,26.1,48.3,24.56,22.66,-7.57,30.9,1.444,6.64E-02
323.9,44.5,0,26.1,48.3,24.56,22.66,-7.57,30.9,1.445,6.66E-02
325,44.4,0,26.1,48.3,24.56,22.65,-7.57,30.9,1.445,6.68E-02
326,44.39,0,26.1,48.3,24.56,22.64,-7.57,30.9,1.446,6.70E-02
327,44.45,0,26.1,48.3,24.56,22.64,-7.57,30.9,1.446,6.72E-02
328,44.5,0,26.1,48.3,24.56,22.65,-7.57,30.9,1.447,6.75E-02
