Time [sec],Flux [g/(m2h)],Mark,AmbT [C],AmbRH [%],ProbeT [C],ProbeRH [%],CondenserT [C],HeatsinkT [C],Ice [mg],Qty [g/m2]
0,0.13,0,26.3,48.9,23.25,13.68,-7.57,29.5,0.252,6.11E-07
1,0.18,0,26.3,48.9,23.25,13.69,-7.57,29.6,0.252,1.50E-06
2,0.66,0,26.3,48.9,23.25,13.74,-7.57,29.6,0.252,4.74E-06
3.1,1.43,0,26.3,49,23.26,13.86,-7.57,29.6,0.253,1.17E-05
4.1,2.76,0,26.3,49,23.26,14.08,-7.57,29.6,0.253,2.52E-05
5.1,4.72,0,26.3,49,23.26,14.42,-7.57,29.6,0.253,4.82E-05
6.1,6.99,0,26.3,49,23.26,14.87,-7.57,29.6,0.253,8.24E-05
7.1,9.76,0,26.3,49,23.26,15.43,-7.57,29.6,0.253,1.30E-04
8.1,12.51,0,26.3,49,23.26,16.04,-7.57,29.6,0.253,1.91E-04
9.2,15.15,0,26.3,49,23.26,16.66,-7.57,29.6,0.253,2.65E-04
10.2,17.63,0,26.3,49.1,23.27,17.27,-7.57,29.6,0.253,3.51E-04
11.2,19.62,0,26.3,49.1,23.26,17.82,-7.57,29.6,0.253,4.47E-04
12.2,21.4,0,26.3,49.1,23.26,18.31,-7.57,29.6,0.254,5.52E-04
13.2,22.84,0,26.3,49.1,23.27,18.73,-7.57,29.6,0.254,6.63E-04
14.2,24.07,0,26.3,49.2,23.27,19.09,-7.57,29.6,0.254,7.81E-04
15.3,25.09,0,26.3,49.2,23.27,19.39,-7.57,29.6,0.254,9.03E-04
16.3,25.86,0,26.3,49.2,23.27,19.63,-7.57,29.6,0.255,1.03E-03
17.3,26.47,0,26.3,49.2,23.27,19.82,-7.57,29.6,0.255,1.16E-03
18.3,27.02,0,26.3,49.3,23.27,19.99,-7.57,29.6,0.255,1.29E-03
19.3,27.39,0,26.3,49.3,23.27,20.11,-7.57,29.6,0.256,1.43E-03
20.3,27.68,0,26.3,49.3,23.27,20.21,-7.57,29.6,0.256,1.56E-03
21.4,27.92,0,26.3,49.3,23.28,20.29,-7.57,29.6,0.256,1.70E-03
22.4,28.08,0,26.3,49.3,23.28,20.34,-7.57,29.6,0.257,1.84E-03
23.4,28.21,0,26.3,49.4,23.28,20.39,-7.57,29.6,0.257,1.97E-03
24.4,28.3,0,26.3,49.4,23.28,20.42,-7.57,29.6,0.257,2.11E-03
25.4,28.39,0,26.3,49.4,23.28,20.45,-7.57,29.6,0.257,2.25E-03
26.4,28.43,0,26.3,49.4,23.28,20.47,-7.57,29.6,0.258,2.39E-03
27.5,28.48,0,26.3,49.4,23.28,20.48,-7.57,29.6,0.258,2.53E-03
28.5,28.5,0,26.3,49.5,23.28,20.49,-7.57,29.6,0.258,2.67E-03
29.5,28.48,0,26.3,49.5,23.28,20.49,-7.57,29.6,0.259,2.81E-03
30.5,28.42,0,26.3,49.5,23.28,20.48,-7.57,29.6,0.259,2.95E-03
31.5,28.36,0,26.3,49.5,23.28,20.47,-7.57,29.6,0.259,3.09E-03
32.5,28.33,0,26.3,49.5,23.28,20.46,-7.57,29.6,0.26,3.23E-03
33.6,28.26,0,26.3,49.5,23.28,20.45,-7.57,29.6,0.26,3.36E-03
34.6,28.2,0,26.3,49.5,23.29,20.43,-7.57,29.6,0.26,3.50E-03
35.6,28.15,0,26.3,49.5,23.29,20.42,-7.57,29.6,0.261,3.64E-03
36.6,28.11,0,26.3,49.5,23.29,20.41,-7.57,29.7,0.261,3.78E-03
37.6,28.07,0,26.3,49.5,23.29,20.4,-7.57,29.7,0.261,3.92E-03
38.7,28.04,0,26.4,49.5,23.29,20.39,-7.57,29.7,0.261,4.05E-03
39.7,27.98,0,26.4,49.6,23.29,20.38,-7.57,29.7,0.262,4.19E-03
40.7,27.9,0,26.4,49.6,23.29,20.36,-7.57,29.7,0.262,4.33E-03
41.7,27.92,0,26.4,49.6,23.29,20.36,-7.57,29.7,0.262,4.46E-03
42.7,27.87,0,26.4,49.6,23.29,20.35,-7.57,29.7,0.263,4.60E-03
43.8,27.78,0,26.4,49.6,23.29,20.33,-7.57,29.7,0.263,4.74E-03
44.8,27.67,0,26.4,49.6,23.29,20.31,-7.57,29.7,0.263,4.87E-03
45.8,27.69,0,26.4,49.5,23.29,20.3,-7.57,29.7,0.264,5.01E-03
46.8,27.64,0,26.4,49.5,23.29,20.29,-7.57,29.7,0.264,5.14E-03
47.8,27.54,0,26.4,49.5,23.29,20.28,-7.57,29.7,0.264,5.28E-03
48.9,27.51,0,26.4,49.5,23.29,20.27,-7.57,29.7,0.265,5.42E-03
49.9,27.48,0,26.4,49.5,23.29,20.26,-7.57,29.7,0.265,5.55E-03
50.9,27.44,0,26.4,49.5,23.29,20.25,-7.57,29.7,0.265,5.68E-03
51.9,27.4,0,26.4,49.5,23.29,20.24,-7.57,29.7,0.265,5.82E-03
53,27.4,0,26.4,49.5,23.29,20.23,-7.57,29.7,0.266,5.95E-03
54,27.38,0,26.4,49.5,23.29,20.22,-7.57,29.7,0.266,6.09E-03
55,27.33,0,26.4,49.5,23.29,20.21,-7.57,29.7,0.266,6.22E-03
56,27.3,0,26.4,49.5,23.29,20.2,-7.57,29.7,0.267,6.35E-03
57,27.25,0,26.4,49.4,23.29,20.19,-7.57,29.7,0.267,6.49E-03
58,27.15,0,26.4,49.4,23.29,20.18,-7.57,29.7,0.267,6.62E-03
59,27.14,0,26.4,49.4,23.29,20.17,-7.57,29.7,0.267,6.75E-03
60.1,27.07,0,26.4,49.4,23.29,20.15,-7.57,29.7,0.268,6.89E-03
61.1,27.07,0,26.4,49.4,23.29,20.15,-7.57,29.7,0.268,7.02E-03
62.1,27.09,0,26.4,49.4,23.29,20.15,-7.57,29.7,0.268,7.15E-03
63.1,27.09,0,26.4,49.3,23.29,20.15,-7.57,29.7,0.269,7.28E-03
64.2,27.09,0,26.4,49.3,23.29,20.15,-7.57,29.7,0.269,7.42E-03
65.2,27.03,0,26.4,49.3,23.29,20.14,-7.57,29.7,0.269,7.55E-03
66.2,27.1,0,26.4,49.3,23.29,20.15,-7.57,29.7,0.27,7.68E-03
67.2,27.14,0,26.4,49.3,23.29,20.15,-7.57,29.7,0.27,7.82E-03
68.2,27.1,0,26.4,49.3,23.29,20.14,-7.57,29.7,0.27,7.95E-03
69.2,27.07,0,26.4,49.3,23.29,20.14,-7.57,29.7,0.27,8.08E-03
70.3,27.04,0,26.4,49.2,23.29,20.13,-7.57,29.7,0.271,8.21E-03
71.3,27.06,0,26.4,49.2,23.29,20.12,-7.57,29.7,0.271,8.35E-03
72.3,26.88,0,26.4,49.2,23.28,20.11,-7.57,29.7,0.271,8.48E-03
73.3,26.77,0,26.4,49.2,23.28,20.1,-7.57,29.7,0.272,8.61E-03
74.3,26.75,0,26.4,49.2,23.28,20.09,-7.57,29.7,0.272,8.74E-03
75.4,26.8,0,26.4,49.2,23.28,20.09,-7.57,29.7,0.272,8.87E-03
76.4,26.84,0,26.4,49.2,23.28,20.09,-7.57,29.7,0.272,9.00E-03
77.4,26.78,0,26.4,49.2,23.28,20.09,-7.57,29.7,0.273,9.13E-03
78.4,26.8,0,26.4,49.2,23.28,20.09,-7.57,29.7,0.273,9.27E-03
79.4,26.86,0,26.4,49.2,23.28,20.09,-7.57,29.7,0.273,9.40E-03
80.4,26.83,0,26.4,49.2,23.28,20.09,-7.57,29.7,0.274,9.53E-03
81.5,26.82,0,26.4,49.2,23.28,20.09,-7.57,29.7,0.274,9.66E-03
82.5,26.81,0,26.4,49.2,23.28,20.08,-7.57,29.7,0.274,9.79E-03
83.5,26.82,0,26.4,49.1,23.28,20.08,-7.57,29.7,0.275,9.92E-03
84.5,26.78,0,26.4,49.1,23.28,20.08,-7.57,29.7,0.275,1.01E-02
85.5,26.81,0,26.4,49.1,23.28,20.08,-7.57,29.7,0.275,1.02E-02
86.6,26.84,0,26.4,49.1,23.28,20.09,-7.57,29.7,0.275,1.03E-02
87.6,26.87,0,26.4,49.1,23.28,20.1,-7.57,29.7,0.276,1.04E-02
88.6,26.87,0,26.4,49.2,23.27,20.12,-7.57,29.7,0.276,1.06E-02
89.6,27.08,0,26.4,49.2,23.28,20.14,-7.57,29.7,0.276,1.07E-02
90.6,27.2,0,26.4,49.2,23.28,20.16,-7.57,29.7,0.277,1.08E-02
91.6,27.22,0,26.4,49.2,23.28,20.18,-7.57,29.8,0.277,1.10E-02
92.7,27.3,0,26.4,49.2,23.28,20.19,-7.57,29.8,0.277,1.11E-02
93.7,27.32,0,26.4,49.2,23.28,20.2,-7.57,29.8,0.277,1.12E-02
94.7,27.32,0,26.4,49.2,23.28,20.21,-7.57,29.8,0.278,1.14E-02
95.7,27.34,0,26.4,49.2,23.28,20.21,-7.57,29.8,0.278,1.15E-02
96.7,27.32,0,26.4,49.2,23.28,20.21,-7.57,29.8,0.278,1.16E-02
97.7,27.38,0,26.4,49.2,23.28,20.22,-7.57,29.8,0.279,1.18E-02
98.8,27.36,0,26.4,49.2,23.27,20.23,-7.57,29.8,0.279,1.19E-02
99.8,27.38,0,26.4,49.2,23.27,20.24,-7.57,29.8,0.279,1.20E-02
100.8,27.5,0,26.4,49.2,23.27,20.25,-7.57,29.8,0.28,1.22E-02
101.8,27.46,0,26.4,49.2,23.27,20.26,-7.57,29.8,0.28,1.23E-02
102.8,27.49,0,26.4,49.2,23.27,20.26,-7.57,29.8,0.28,1.25E-02
103.8,27.45,0,26.4,49.3,23.27,20.26,-7.57,29.8,0.28,1.26E-02
104.8,27.39,0,26.4,49.3,23.27,20.26,-7.57,29.8,0.281,1.27E-02
105.9,27.41,0,26.4,49.3,23.27,20.27,-7.57,29.8,0.281,1.29E-02
106.9,27.37,0,26.4,49.3,23.26,20.26,-7.57,29.8,0.281,1.30E-02
107.9,27.4,0,26.4,49.3,23.26,20.26,-7.57,29.8,0.282,1.31E-02
108.9,27.43,0,26.4,49.3,23.26,20.27,-7.57,29.8,0.282,1.33E-02
109.9,27.45,0,26.4,49.3,23.26,20.27,-7.57,29.8,0.282,1.34E-02
111,27.47,0,26.4,49.3,23.27,20.28,-7.57,29.8,0.283,1.35E-02
112,27.42,0,26.4,49.3,23.27,20.27,-7.57,29.8,0.283,1.37E-02
113,27.45,0,26.4,49.3,23.27,20.27,-7.57,29.8,0.283,1.38E-02
114,27.44,0,26.4,49.3,23.26,20.27,-7.57,29.8,0.283,1.39E-02
115,27.43,0,26.4,49.3,23.26,20.27,-7.57,29.8,0.284,1.41E-02
116,27.45,0,26.4,49.3,23.26,20.27,-7.57,29.8,0.284,1.42E-02
117.1,27.44,0,26.4,49.3,23.26,20.27,-7.57,29.8,0.284,1.43E-02
118.1,27.45,0,26.4,49.3,23.26,20.27,-7.57,29.8,0.285,1.45E-02
119.1,27.47,0,26.4,49.3,23.26,20.27,-7.57,29.8,0.285,1.46E-02
120.1,27.48,0,26.5,49.3,23.26,20.28,-7.57,29.8,0.285,1.47E-02
121.1,27.48,0,26.5,49.3,23.26,20.28,-7.57,29.8,0.286,1.49E-02
122.2,27.44,0,26.5,49.3,23.26,20.28,-7.57,29.8,0.286,1.50E-02
123.2,27.44,0,26.5,49.3,23.26,20.27,-7.57,29.8,0.286,1.51E-02
124.2,27.46,0,26.5,49.3,23.26,20.27,-7.57,29.8,0.286,1.53E-02
125.2,27.46,0,26.5,49.3,23.26,20.27,-7.57,29.8,0.287,1.54E-02
126.2,27.45,0,26.5,49.3,23.26,20.27,-7.57,29.8,0.287,1.55E-02
127.2,27.43,0,26.5,49.3,23.26,20.27,-7.57,29.8,0.287,1.57E-02
128.3,27.46,0,26.5,49.3,23.26,20.27,-7.57,29.8,0.288,1.58E-02
129.3,27.48,0,26.5,49.3,23.26,20.27,-7.57,29.8,0.288,1.59E-02
130.3,27.46,0,26.5,49.3,23.26,20.27,-7.57,29.8,0.288,1.61E-02
131.3,27.46,0,26.5,49.3,23.26,20.27,-7.57,29.8,0.289,1.62E-02
132.4,27.47,0,26.5,49.3,23.26,20.27,-7.57,29.8,0.289,1.64E-02
133.4,27.46,0,26.5,49.3,23.26,20.27,-7.57,29.8,0.289,1.65E-02
134.4,27.46,0,26.5,49.3,23.26,20.27,-7.57,29.8,0.289,1.66E-02
135.4,27.45,0,26.5,49.3,23.26,20.27,-7.57,29.8,0.29,1.68E-02
136.5,27.46,0,26.5,49.3,23.26,20.27,-7.57,29.8,0.29,1.69E-02
137.5,27.46,0,26.5,49.3,23.26,20.27,-7.57,29.8,0.29,1.70E-02
138.5,27.44,0,26.5,49.3,23.26,20.27,-7.57,29.8,0.291,1.72E-02
139.5,27.46,0,26.5,49.2,23.26,20.27,-7.57,29.8,0.291,1.73E-02
140.5,27.47,0,26.5,49.2,23.25,20.27,-7.57,29.8,0.291,1.74E-02
141.6,27.43,0,26.5,49.2,23.25,20.27,-7.57,29.8,0.292,1.76E-02
142.6,27.48,0,26.5,49.2,23.25,20.27,-7.57,29.8,0.292,1.77E-02
143.6,27.45,0,26.5,49.2,23.25,20.27,-7.57,29.8,0.292,1.78E-02
144.6,27.49,0,26.5,49.2,23.25,20.28,-7.57,29.8,0.292,1.80E-02
145.6,27.49,0,26.5,49.2,23.25,20.29,-7.57,29.8,0.293,1.81E-02
146.6,27.5,0,26.5,49.2,23.25,20.3,-7.57,29.8,0.293,1.82E-02
147.7,27.63,0,26.5,49.2,23.25,20.31,-7.57,29.8,0.293,1.84E-02
148.7,27.61,0,26.5,49.2,23.25,20.32,-7.57,29.8,0.294,1.85E-02
149.7,27.69,0,26.5,49.2,23.25,20.33,-7.57,29.8,0.294,1.86E-02
150.7,27.68,0,26.5,49.2,23.25,20.33,-7.57,29.8,0.294,1.88E-02
151.7,27.65,0,26.5,49.2,23.25,20.33,-7.57,29.8,0.295,1.89E-02
152.8,27.61,0,26.5,49.2,23.25,20.33,-7.57,29.8,0.295,1.91E-02
153.8,27.63,0,26.5,49.2,23.25,20.33,-7.57,29.8,0.295,1.92E-02
154.8,27.67,0,26.5,49.2,23.25,20.33,-7.57,29.8,0.295,1.93E-02
155.8,27.59,0,26.5,49.2,23.25,20.33,-7.57,29.8,0.296,1.95E-02
156.8,27.57,0,26.5,49.2,23.25,20.32,-7.57,29.8,0.296,1.96E-02
157.8,27.57,0,26.5,49.2,23.25,20.31,-7.57,29.8,0.296,1.97E-02
158.8,27.58,0,26.5,49.2,23.25,20.3,-7.57,29.8,0.297,1.99E-02
159.9,27.58,0,26.5,49.2,23.25,20.3,-7.57,29.8,0.297,2.00E-02
160.9,27.39,0,26.5,49.2,23.25,20.28,-7.57,29.8,0.297,2.01E-02
161.9,27.33,0,26.5,49.2,23.25,20.27,-7.57,29.8,0.298,2.03E-02
162.9,27.34,0,26.5,49.2,23.24,20.27,-7.57,29.8,0.298,2.04E-02
164,27.35,0,26.5,49.2,23.24,20.27,-7.57,29.8,0.298,2.05E-02
165,27.3,0,26.5,49.2,23.24,20.26,-7.57,29.8,0.298,2.07E-02
166,27.27,0,26.5,49.2,23.24,20.26,-7.57,29.8,0.299,2.08E-02
167,27.24,0,26.5,49.2,23.24,20.25,-7.57,29.8,0.299,2.09E-02
168,27.2,0,26.5,49.2,23.24,20.24,-7.57,29.8,0.299,2.11E-02
169,27.15,0,26.5,49.2,23.24,20.23,-7.57,29.8,0.3,2.12E-02
170.1,27.09,0,26.5,49.2,23.24,20.22,-7.57,29.8,0.3,2.13E-02
171.1,27.08,0,26.5,49.2,23.23,20.21,-7.57,29.8,0.3,2.15E-02
172.1,27.03,0,26.5,49.2,23.23,20.2,-7.57,29.8,0.3,2.16E-02
173.1,27.01,0,26.5,49.2,23.23,20.2,-7.57,29.8,0.301,2.17E-02
174.1,27.04,0,26.5,49.2,23.23,20.2,-7.57,29.8,0.301,2.19E-02
175.2,27.04,0,26.5,49.2,23.23,20.2,-7.57,29.8,0.301,2.20E-02
176.2,27.06,0,26.5,49.2,23.23,20.2,-7.57,29.8,0.302,2.21E-02
177.2,27.07,0,26.5,49.2,23.24,20.2,-7.57,29.8,0.302,2.23E-02
178.2,27.12,0,26.5,49.2,23.24,20.2,-7.57,29.8,0.302,2.24E-02
179.3,27.09,0,26.5,49.2,23.24,20.2,-7.57,29.8,0.303,2.25E-02
180.3,27.08,0,26.6,49.2,23.23,20.2,-7.57,29.8,0.303,2.27E-02
181.3,27.09,0,26.6,49.2,23.23,20.2,-7.57,29.9,0.303,2.28E-02
182.3,27.11,0,26.6,49.2,23.23,20.21,-7.57,29.9,0.303,2.29E-02
183.3,27.07,0,26.6,49.2,23.23,20.2,-7.57,29.9,0.304,2.31E-02
184.3,27.06,0,26.6,49.2,23.23,20.2,-7.57,29.9,0.304,2.32E-02
185.4,27.11,0,26.6,49.2,23.24,20.2,-7.57,29.9,0.304,2.33E-02
186.4,27.11,0,26.6,49.2,23.24,20.21,-7.57,29.9,0.305,2.35E-02
187.4,27.11,0,26.6,49.2,23.24,20.21,-7.57,29.9,0.305,2.36E-02
188.4,27.08,0,26.6,49.2,23.24,20.21,-7.57,29.9,0.305,2.37E-02
189.4,27.12,0,26.6,49.2,23.23,20.22,-7.57,29.9,0.305,2.39E-02
190.4,27.14,0,26.6,49.2,23.23,20.24,-7.57,29.9,0.306,2.40E-02
191.5,27.27,0,26.6,49.2,23.23,20.25,-7.57,29.9,0.306,2.41E-02
192.5,27.3,0,26.6,49.2,23.23,20.26,-7.57,29.9,0.306,2.43E-02
193.5,27.33,0,26.6,49.2,23.23,20.27,-7.57,29.9,0.307,2.44E-02
194.5,27.38,0,26.6,49.2,23.23,20.28,-7.57,29.9,0.307,2.45E-02
195.5,27.34,0,26.6,49.2,23.23,20.28,-7.57,29.9,0.307,2.47E-02
196.5,27.37,0,26.6,49.2,23.23,20.28,-7.57,29.9,0.308,2.48E-02
197.6,27.38,0,26.6,49.2,23.23,20.29,-7.57,29.9,0.308,2.49E-02
198.6,27.45,0,26.6,49.2,23.23,20.3,-7.57,29.9,0.308,2.51E-02
199.6,27.49,0,26.6,49.2,23.23,20.31,-7.57,29.9,0.308,2.52E-02
200.6,27.58,0,26.6,49.2,23.23,20.32,-7.57,29.9,0.309,2.53E-02
201.7,27.68,0,26.6,49.2,23.23,20.34,-7.57,29.9,0.309,2.55E-02
202.7,27.73,0,26.6,49.2,23.23,20.36,-7.57,29.9,0.309,2.56E-02
203.7,27.73,0,26.6,49.2,23.23,20.37,-7.57,29.9,0.31,2.57E-02
204.7,27.74,0,26.6,49.2,23.23,20.37,-7.57,29.9,0.31,2.59E-02
205.7,27.78,0,26.6,49.2,23.22,20.38,-7.57,29.9,0.31,2.60E-02
206.7,27.73,0,26.6,49.2,23.22,20.38,-7.57,29.9,0.311,2.61E-02
207.8,27.78,0,26.6,49.2,23.22,20.39,-7.57,29.9,0.311,2.63E-02
208.8,27.76,0,26.6,49.2,23.22,20.39,-7.57,29.9,0.311,2.64E-02
209.8,27.78,0,26.6,49.2,23.22,20.39,-7.57,29.9,0.311,2.66E-02
210.8,27.77,0,26.5,49.2,23.22,20.39,-7.57,29.9,0.312,2.67E-02
211.8,27.72,0,26.5,49.2,23.23,20.38,-7.57,29.9,0.312,2.68E-02
212.9,27.74,0,26.5,49.2,23.23,20.38,-7.57,29.9,0.312,2.70E-02
213.9,27.71,0,26.5,49.2,23.23,20.38,-7.57,29.9,0.313,2.71E-02
214.9,27.74,0,26.5,49.2,23.23,20.38,-7.57,29.9,0.313,2.72E-02
215.9,27.76,0,26.5,49.2,23.23,20.38,-7.57,29.9,0.313,2.74E-02
217,27.76,0,26.5,49.2,23.23,20.39,-7.57,29.9,0.314,2.75E-02
218,27.75,0,26.5,49.2,23.23,20.39,-7.57,29.9,0.314,2.76E-02
219,27.75,0,26.5,49.2,23.23,20.39,-7.57,29.9,0.314,2.78E-02
220,27.76,0,26.5,49.2,23.23,20.39,-7.57,29.9,0.315,2.79E-02
221,27.75,0,26.5,49.2,23.23,20.39,-7.57,29.9,0.315,2.81E-02
222,27.74,0,26.5,49.3,23.23,20.38,-7.57,29.9,0.315,2.82E-02
223.1,27.74,0,26.5,49.3,23.23,20.38,-7.57,29.9,0.315,2.83E-02
224.1,27.75,0,26.5,49.3,23.23,20.38,-7.57,29.9,0.316,2.85E-02
225.1,27.78,0,26.5,49.3,23.23,20.38,-7.57,29.9,0.316,2.86E-02
226.1,27.78,0,26.5,49.3,23.23,20.39,-7.57,29.9,0.316,2.87E-02
227.1,27.78,0,26.5,49.3,23.23,20.39,-7.57,29.9,0.317,2.89E-02
228.1,27.78,0,26.5,49.3,23.22,20.4,-7.57,29.9,0.317,2.90E-02
229.2,27.79,0,26.5,49.3,23.22,20.4,-7.57,29.9,0.317,2.91E-02
230.2,27.77,0,26.5,49.3,23.22,20.4,-7.57,29.9,0.318,2.93E-02
231.2,27.74,0,26.5,49.3,23.22,20.4,-7.57,29.9,0.318,2.94E-02
232.3,27.75,0,26.5,49.3,23.22,20.39,-7.57,29.9,0.318,2.96E-02
233.3,27.75,0,26.5,49.3,23.22,20.39,-7.57,29.9,0.318,2.97E-02
234.3,27.78,0,26.5,49.3,23.22,20.39,-7.57,29.9,0.319,2.98E-02
235.3,27.75,0,26.5,49.3,23.22,20.38,-7.57,29.9,0.319,3.00E-02
236.3,27.8,0,26.5,49.3,23.23,20.39,-7.57,29.9,0.319,3.01E-02
237.3,27.78,0,26.5,49.3,23.23,20.39,-7.57,29.9,0.32,3.02E-02
238.4,27.79,0,26.5,49.3,23.23,20.39,-7.57,29.9,0.32,3.04E-02
239.4,27.82,0,26.5,49.3,23.23,20.4,-7.57,29.9,0.32,3.05E-02
240.4,27.83,0,26.5,49.3,23.23,20.41,-7.57,29.9,0.321,3.06E-02
241.4,27.98,0,26.5,49.3,23.23,20.42,-7.57,29.9,0.321,3.08E-02
242.4,28.01,0,26.5,49.3,23.23,20.43,-7.57,29.9,0.321,3.09E-02
243.4,28.06,0,26.5,49.3,23.23,20.44,-7.57,29.9,0.321,3.11E-02
244.5,28.11,0,26.5,49.3,23.23,20.45,-7.57,29.9,0.322,3.12E-02
245.5,28.15,0,26.5,49.3,23.23,20.46,-7.57,29.9,0.322,3.13E-02
246.5,28.14,0,26.5,49.3,23.23,20.47,-7.57,29.9,0.322,3.15E-02
247.5,28.19,0,26.5,49.3,23.23,20.48,-7.57,29.9,0.323,3.16E-02
248.6,28.2,0,26.5,49.3,23.23,20.48,-7.57,29.9,0.323,3.17E-02
249.6,28.26,0,26.5,49.3,23.23,20.49,-7.57,29.9,0.323,3.19E-02
250.6,28.26,0,26.5,49.3,23.23,20.5,-7.57,30,0.324,3.20E-02
251.6,28.28,0,26.5,49.3,23.23,20.5,-7.57,30,0.324,3.22E-02
252.7,28.3,0,26.5,49.3,23.23,20.51,-7.57,30,0.324,3.23E-02
253.7,28.3,0,26.5,49.3,23.23,20.51,-7.57,30,0.325,3.24E-02
254.7,28.29,0,26.5,49.3,23.23,20.51,-7.57,30,0.325,3.26E-02
255.7,28.31,0,26.5,49.3,23.23,20.51,-7.57,30,0.325,3.27E-02
256.7,28.24,0,26.5,49.3,23.23,20.51,-7.57,30,0.325,3.29E-02
257.8,28.22,0,26.5,49.3,23.23,20.51,-7.57,30,0.326,3.30E-02
258.8,28.25,0,26.5,49.3,23.23,20.51,-7.57,30,0.326,3.31E-02
259.8,28.3,0,26.5,49.3,23.23,20.52,-7.57,30,0.326,3.33E-02
260.8,28.35,0,26.5,49.3,23.23,20.54,-7.57,30,0.327,3.34E-02
261.8,28.36,0,26.5,49.3,23.23,20.55,-7.57,30,0.327,3.35E-02
262.8,28.61,0,26.5,49.3,23.23,20.57,-7.57,30,0.327,3.37E-02
263.8,28.67,0,26.5,49.3,23.23,20.59,-7.57,30,0.328,3.38E-02
264.9,28.73,0,26.5,49.3,23.23,20.6,-7.57,30,0.328,3.40E-02
265.9,28.79,0,26.5,49.3,23.23,20.62,-7.57,30,0.328,3.41E-02
266.9,28.85,0,26.5,49.3,23.23,20.63,-7.57,30,0.329,3.42E-02
267.9,28.95,0,26.5,49.3,23.23,20.65,-7.57,30,0.329,3.44E-02
268.9,29.01,0,26.5,49.3,23.23,20.67,-7.57,30,0.329,3.45E-02
270,29.04,0,26.5,49.3,23.23,20.68,-7.57,30,0.33,3.47E-02
271,29.09,0,26.5,49.3,23.23,20.69,-7.57,30,0.33,3.48E-02
272,29.08,0,26.5,49.3,23.23,20.69,-7.57,30,0.33,3.50E-02
273,29.08,0,26.5,49.2,23.23,20.69,-7.57,30,0.33,3.51E-02
274,29.03,0,26.5,49.2,23.23,20.69,-7.57,30,0.331,3.52E-02
275,29.03,0,26.5,49.2,23.23,20.69,-7.57,30,0.331,3.54E-02
276.1,29.06,0,26.5,49.2,23.23,20.69,-7.57,30,0.331,3.55E-02
277.1,29.09,0,26.5,49.2,23.23,20.69,-7.57,30,0.332,3.57E-02
278.1,29.03,0,26.5,49.2,23.23,20.69,-7.57,30,0.332,3.58E-02
279.1,29,0,26.5,49.2,23.23,20.69,-7.57,30,0.332,3.60E-02
280.1,29.02,0,26.5,49.2,23.23,20.68,-7.57,30,0.333,3.61E-02
281.2,28.99,0,26.5,49.2,23.23,20.67,-7.57,30,0.333,3.62E-02
282.2,28.97,0,26.5,49.2,23.23,20.66,-7.57,30,0.333,3.64E-02
283.2,28.82,0,26.5,49.2,23.23,20.65,-7.57,30,0.334,3.65E-02
284.2,28.72,0,26.5,49.2,23.23,20.63,-7.57,30,0.334,3.67E-02
285.2,28.73,0,26.5,49.2,23.23,20.62,-7.57,30,0.334,3.68E-02
286.2,28.68,0,26.5,49.2,23.23,20.61,-7.57,30,0.335,3.69E-02
287.3,28.58,0,26.5,49.2,23.23,20.59,-7.57,30,0.335,3.71E-02
288.3,28.58,0,26.5,49.2,23.23,20.58,-7.57,30,0.335,3.72E-02
289.3,28.55,0,26.5,49.2,23.23,20.58,-7.57,30,0.336,3.74E-02
290.3,28.63,0,26.5,49.2,23.23,20.58,-7.57,30,0.336,3.75E-02
291.3,28.6,0,26.5,49.2,23.23,20.58,-7.57,30,0.336,3.76E-02
292.4,28.56,0,26.5,49.2,23.23,20.58,-7.57,30,0.336,3.78E-02
293.4,28.56,0,26.5,49.2,23.23,20.57,-7.57,30,0.337,3.79E-02
294.4,28.53,0,26.5,49.2,23.23,20.57,-7.57,30,0.337,3.81E-02
295.4,28.46,0,26.5,49.2,23.23,20.56,-7.57,30,0.337,3.82E-02
296.5,28.4,0,26.5,49.2,23.24,20.54,-7.57,30,0.338,3.83E-02
297.5,28.37,0,26.5,49.2,23.24,20.53,-7.57,30,0.338,3.85E-02
298.5,28.33,0,26.5,49.2,23.24,20.52,-7.57,30,0.338,3.86E-02
299.5,28.33,0,26.5,49.2,23.24,20.51,-7.57,30,0.339,3.88E-02
300.5,28.31,0,26.5,49.2,23.24,20.51,-7.57,30,0.339,3.89E-02
301.5,28.35,0,26.5,49.2,23.24,20.51,-7.57,30,0.339,3.90E-02
302.6,28.4,0,26.5,49.2,23.24,20.51,-7.57,30,0.34,3.92E-02
303.6,28.43,0,26.5,49.2,23.24,20.52,-7.57,30,0.34,3.93E-02
304.6,28.48,0,26.5,49.2,23.24,20.53,-7.57,30,0.34,3.95E-02
305.6,28.58,0,26.5,49.2,23.24,20.55,-7.57,30,0.34,3.96E-02
306.6,28.59,0,26.5,49.2,23.24,20.56,-7.57,30,0.341,3.97E-02
307.6,28.59,0,26.5,49.2,23.24,20.56,-7.57,30,0.341,3.99E-02
308.7,28.61,0,26.5,49.2,23.24,20.57,-7.57,30,0.341,4.00E-02
309.7,28.62,0,26.5,49.2,23.24,20.57,-7.57,30,0.342,4.02E-02
310.7,28.69,0,26.5,49.2,23.24,20.58,-7.57,30,0.342,4.03E-02
311.7,28.73,0,26.5,49.2,23.24,20.59,-7.57,30,0.342,4.04E-02
312.8,28.83,0,26.5,49.1,23.24,20.61,-7.57,30,0.343,4.06E-02
313.8,28.85,0,26.5,49.1,23.24,20.62,-7.57,30,0.343,4.07E-02
314.8,28.97,0,26.5,49.1,23.24,20.64,-7.57,30,0.343,4.09E-02
315.8,29.06,0,26.5,49.1,23.24,20.66,-7.57,30,0.344,4.10E-02
316.8,29.08,0,26.5,49.1,23.25,20.67,-7.57,30,0.344,4.12E-02
317.8,29.05,0,26.5,49.1,23.24,20.67,-7.57,30,0.344,4.13E-02
318.8,29.08,0,26.5,49.1,23.24,20.68,-7.57,30,0.345,4.14E-02
319.9,29.21,0,26.5,49.1,23.25,20.69,-7.57,30,0.345,4.16E-02
320.9,29.18,0,26.5,49.1,23.25,20.7,-7.57,30,0.345,4.17E-02
321.9,29.21,0,26.6,49.1,23.25,20.7,-7.57,30,0.346,4.19E-02
322.9,29.27,0,26.6,49,23.25,20.71,-7.57,30,0.346,4.20E-02
323.9,29.35,0,26.6,49,23.25,20.73,-7.57,30,0.346,4.22E-02
325,29.4,0,26.6,49,23.25,20.74,-7.57,30,0.346,4.23E-02
326,29.51,0,26.6,49,23.25,20.76,-7.57,30,0.347,4.24E-02
327,29.6,0,26.6,49,23.25,20.78,-7.57,30,0.347,4.26E-02
328,29.6,0,26.6,49,23.25,20.79,-7.57,30,0.347,4.27E-02
